522
493
501
507
502
469
486
497
483
466
495
498
486
479
504
511
498
494
521
525
502
509
537
540
518
538
550
550
525
547
558
556
530
556
558
538
525
549
549
531
523
542
540
506
511
527
524
491
508
512
503
477
496
500
492
466
486
491
470
459
487
489
469
468
487
488
468
470
489
489
460
471
489
483
461
485
490
483
462
484
489
481
461
490
490
468
463
489
487
464
468
484
483
453
466
480
479
449
472
476
465
445
472
477
466
452
475
481
459
458
484
485
461
471
484
483
460
471
486
486
457
475
491
483
468
502
510
505
503
532
546
539
539
571
577
561
568
601
607
587
605
618
616
590
607
614
609
579
603
599
576
558
577
572
552
539
556
550
517
517
532
531
501
514
518
510
484
499
501
495
467
485
492
474
463
492
495
478
478
500
505
487
490
513
517
491
501
520
515
492
514
520
514
491
512
520
513
490
516
517
496
488
514
514
492
495
510
508
478
489
503
501
468
491
494
483
460
483
485
474
453
475
478
453
448
474
474
448
455
470
471
448
459
475
476
450
466
483
473
456
484
488
479
465
488
492
479
467
494
494
468
467
491
492
469
483
495
498
471
490
503
502
478
507
509
495
480
506
507
494
485
507
515
493
499
529
533
516
540
558
563
545
572
591
594
575
598
613
600
592
621
624
609
605
624
625
606
599
616
614
582
584
598
586
559
572
575
564
532
551
554
547
517
540
540
515
504
528
525
502
500
516
515
485
495
511
513
484
510
516
513
493
521
529
522
501
525
528
506
501
529
529
512
520
536
535
513
516
533
532
504
517
532
522
501
526
529
516
496
517
519
506
487
509
507
481
478
500
498
474
481
494
493
460
477
488
487
456
485
489
476
461
489
493
481
471
494
497
473
474
498
499
472
488
497
497
473
487
497
494
467
484
495
480
467
496
499
484
476
497
499
482
475
497
497
468
475
497
495
473
498
509
511
491
517
533
534
517
554
563
553
550
589
600
586
593
617
625
604
615
638
640
612
636
642
635
610
629
631
623
595
615
615
588
577
599
598
571
568
579
573
546
544
554
551
516
524
537
526
502
525
528
519
501
525
530
521
503
531
532
510
507
534
535
514
524
540
537
508
523
538
538
509
534
536
522
503
527
530
517
501
523
525
499
498
521
521
494
504
513
510
483
496
505
503
473
490
500
487
470
498
503
488
479
499
501
488
479
502
502
476
479
503
500
475
493
503
501
473
493
501
497
471
498
499
483
471
500
502
485
484
504
508
479
486
507
508
479
499
504
498
472
492
498
493
466
489
493
472
461
489
492
473
473
492
493
474
478
498
500
475
488
511
513
497
531
543
547
537
568
583
581
572
605
610
595
592
623
626
605
613
630
630
599
611
624
620
587
607
609
594
571
592
590
577
554
570
569
537
530
548
546
514
519
528
525
497
507
519
516
487
503
516
504
487
515
519
507
496
519
521
508
497
524
526
501
504
530
529
507
525
534
533
506
525
537
536
512
539
541
523
508
532
532
512
505
524
525
496
499
518
517
490
508
514
508
482
496
503
497
470
490
496
476
466
492
492
472
469
487
487
467
463
483
482
450
459
477
471
448
470
476
469
446
471
478
473
452
483
485
465
459
487
489
468
474
490
492
462
475
493
493
461
487
491
482
460
486
490
480
464
488
494
473
471
500
502
482
496
516
524
507
526
553
558
540
563
587
588
577
613
620
614
607
631
637
626
611
635
635
607
604
625
620
592
600
607
600
566
579
583
576
541
561
560
538
518
538
535
517
503
521
520
488
489
509
509
479
496
505
504
478
497
509
507
483
504
515
499
489
519
524
508
506
528
531
516
513
534
534
504
510
530
524
498
516
522
515
486
507
510
503
475
500
499
474
463
489
488
466
467
485
484
452
463
481
481
452
480
487
481
459
487
493
485
466
489
494
470
465
492
495
473
480
496
497
474
481
497
496
468
481
498
488
468
493
495
484
467
489
491
480
462
485
484
457
456
482
480
454
462
473
471
441
457
471
471
444
474
478
466
449
479
483
471
461
486
491
467
473
501
506
486
509
524
532
513
536
557
563
547
573
595
589
581
617
623
611
609
630
634
617
611
630
629
599
602
618
608
580
593
596
587
556
573
575
567
536
558
555
530
516
542
539
517
512
529
526
495
503
522
522
495
518
524
521
498
522
531
526
506
531
540
521
514
543
546
523
525
542
542
520
524
539
539
508
519
533
522
499
523
525
515
495
516
519
509
490
517
518
492
487
511
510
484
492
506
504
472
488
501
500
470
498
501
489
470
497
500
489
476
498
503
476
477
503
503
477
492
506
506
481
495
510
509
481
498
510
493
476
501
502
484
472
491
491
474
464
486
486
458
462
485
482
457
473
483
479
451
472
480
476
449
477
480
463
453
483
485
467
464
485
487
459
467
489
491
464
491
500
500
479
506
521
522
508
539
556
551
550
589
598
590
602
625
635
618
624
645
647
620
631
650
643
620
640
643
632
605
624
622
610
582
600
596
565
552
572
565
539
541
552
545
509
518
527
521
486
508
508
492
469
493
497
487
472
495
500
477
477
504
506
482
495
509
510
487
498
513
514
487
505
519
508
490
518
521
509
498
520
523
509
498
523
522
495
495
517
514
488
500
510
505
475
494
501
498
468
494
494
476
462
487
489
470
463
483
484
455
459
479
478
449
467
477
474
450
472
482
480
455
478
486
468
458
486
488
468
467
486
485
465
463
484
484
452
461
479
471
446
468
473
467
445
468
475
468
447
477
480
459
453
481
484
464
470
489
493
467
483
506
510
486
519
528
527
512
546
558
556
549
577
588
569
569
598
601
578
589
604
603
580
588
599
595
561
574
581
563
539
560
558
538
518
534
530
512
493
511
508
478
477
500
497
471
483
492
489
460
477
487
486
458
487
490
477
463
491
495
480
474
496
500
477
481
507
509
483
503
512
509
485
504
512
507
479
502
510
494
482
509
510
491
488
506
508
489
484
504
504
475
484
504
499
474
496
501
494
468
490
493
484
459
483
482
460
450
476
477
454
456
473
472
440
449
466
465
433
457
462
453
432
458
463
456
439
464
471
449
446
476
480
459
468
485
486
464
473
491
490
464
478
495
484
465
492
496
484
470
492
497
486
473
499
501
480
480
509
517
500
519
535
543
524
547
571
576
558
595
605
599
589
623
631
619
612
634
637
609
612
633
633
602
613
621
613
584
595
600
592
558
572
575
552
535
559
559
539
531
549
548
530
521
540
539
507
511
531
526
501
521
530
525
502
525
533
530
507
536
538
519
511
541
544
524
526
544
545
516
526
542
541
511
532
536
528
505
526
532
524
502
524
528
506
498
524
523
498
503
517
516
493
500
518
517
489
502
519
511
491
516
520
511
493
515
520
510
493
517
517
491
488
511
508
484
493
504
504
473
488
501
499
467
493
493
480
461
486
489
474
464
486
489
463
463
487
488
460
473
483
481
457
471
483
481
453
472
485
469
457
484
487
473
467
490
493
477
473
499
502
477
484
512
513
493
520
534
540
525
553
573
576
563
603
615
612
607
644
652
638
641
660
665
638
647
663
662
628
643
645
634
606
619
616
605
575
591
589
559
545
563
560
531
528
540
534
508
509
524
521
488
499
514
504
482
505
509
500
482
506
511
502
486
516
519
498
499
527
531
512
523
540
543
514
531
543
542
513
538
539
525
504
530
532
516
500
521
520
490
488
509
508
478
488
499
494
467
477
486
483
453
472
483
467
451
478
479
464
454
475
476
460
450
472
473
444
446
467
465
441
459
469
467
441
463
474
472
447
478
482
464
452
479
482
462
458
478
479
450
456
477
476
447
467
475
469
447
468
475
471
446
469
476
455
445
472
472
453
457
477
485
468
478
503
509
488
504
530
532
515
549
559
560
550
578
590
586
573
604
608
588
585
611
609
586
589
603
598
564
573
582
577
541
559
558
540
517
537
537
521
503
523
522
493
489
511
510
482
494
505
505
479
489
500
498
467
485
497
483
466
495
500
489
482
505
511
499
490
515
517
491
494
517
515
490
504
512
508
478
496
506
502
474
499
499
480
466
490
488
467
459
479
478
446
450
471
470
439
458
465
458
430
449
457
452
426
450
457
439
428
458
462
443
446
465
469
450
454
475
476
448
461
481
477
456
481
487
480
458
481
488
479
459
487
488
464
459
485
484
459
463
478
475
443
457
472
471
440
468
473
463
446
476
483
476
465
493
504
486
489
522
529
517
541
560
570
553
573
593
597
576
596
613
603
586
613
616
601
586
605
602
585
567
585
581
550
547
562
554
526
534
541
535
504
521
528
522
489
511
509
489
473
495
494
475
465
484
486
457
462
485
487
460
483
494
492
470
492
501
498
474
498
509
494
483
512
515
496
496
515
517
497
497
517
517
486
495
515
508
483
504
509
502
477
498
501
491
467
490
490
464
456
480
477
454
457
471
470
438
451
467
466
435
461
467
458
438
465
471
462
446
471
476
452
450
476
478
454
464
479
480
457
468
483
481
452
469
484
474
456
483
486
475
462
484
488
475
464
489
489
464
465
490
490
466
481
494
493
465
485
497
495
467
495
498
485
473
504
513
502
501
527
538
520
532
563
569
549
574
587
589
569
592
606
605
580
603
613
594
582
608
610
590
586
605
604
581
573
589
583
549
552
567
556
529
546
549
539
510
531
534
526
500
525
526
503
493
520
521
498
500
515
517
489
501
520
520
494
520
527
522
501
528
535
527
510
534
539
516
512
538
538
513
517
530
526
500
508
520
517
485
499
513
499
477
503
504
491
473
495
496
482
467
490
491
465
464
488
487
464
479
492
492
464
481
493
491
462
488
490
473
457
484
487
474
466
488
492
465
470
495
496
470
487
497
494
468
485
495
491
463
483
492
474
460
486
487
469
464
484
485
466
463
484
486
457
465
488
484
462
487
495
492
466
489
497
494
470
502
506
489
483
517
526
510
518
542
550
530
546
571
575
554
584
593
593
575
603
610
604
584
607
610
584
576
596
593
563
561
571
563
535
535
543
538
501
511
521
507
483
507
509
494
475
496
498
486
470
496
496
471
469
496
495
472
486
502
507
480
500
515
518
493
525
529
518
503
531
534
520
508
529
529
503
505
529
528
501
516
524
518
492
504
510
505
475
491
498
479
465
492
493
476
468
487
488
470
463
485
486
457
462
483
480
456
475
481
477
451
473
480
476
449
478
480
460
448
477
479
458
458
478
478
448
457
475
475
446
470
475
469
446
469
475
467
446
469
474
452
445
476
477
454
461
478
479
458
464
483
483
456
469
491
486
469
501
511
509
500
530
543
540
536
573
580
567
571
605
610
591
605
621
623
596
613
626
624
594
618
619
602
581
603
600
581
562
580
576
544
541
559
557
525
534
542
536
509
519
527
523
495
513
522
505
490
517
519
505
498
521
524
507
501
524
526
499
506
529
529
504
525
535
536
512
533
541
538
510
536
537
520
507
535
536
516
514
531
532
500
505
522
520
489
508
512
503
476
495
496
490
464
485
489
467
458
487
489
467
474
493
496
475
484
502
504
476
489
507
499
477
503
508
498
477
500
502
492
475
500
500
476
472
496
495
471
481
495
493
462
477
491
488
456
481
483
471
454
483
487
474
461
484
487
463
464
491
491
466
482
497
501
481
503
522
526
507
533
553
551
543
582
594
594
598
627
641
633
633
663
667
643
648
670
667
641
654
659
649
616
632
635
627
593
613
611
585
568
589
587
565
558
574
569
535
537
552
548
513
531
535
528
503
524
530
525
501
526
534
515
506
537
538
518
524
544
548
529
536
558
560
534
548
566
560
541
566
569
561
538
560
563
553
532
554
553
524
517
540
535
510
514
527
524
494
506
520
518
487
512
514
501
480
506
509
497
482
505
507
482
480
504
505
479
493
506
506
483
499
514
515
485
505
518
505
487
513
514
499
486
507
509
492
480
503
504
476
478
501
497
471
488
498
496
469
488
498
493
467
496
498
480
467
494
496
478
470
492
493
462
469
492
492
465
488
498
498
478
507
522
524
510
540
560
556
555
597
608
602
616
642
654
640
650
675
680
654
667
687
680
657
677
680
670
641
660
657
645
615
634
630
599
591
612
606
580
579
590
584
549
559
570
566
532
557
560
548
525
552
554
543
526
549
555
531
531
556
557
532
542
556
557
534
548
563
565
539
558
573
562
545
573
576
562
549
569
569
552
537
556
554
524
522
541
533
506
518
525
517
483
497
502
497
468
493
493
475
460
485
485
467
460
481
484
458
465
488
490
463
485
495
493
470
493
503
500
475
499
508
490
479
507
509
489
488
506
508
488
488
508
507
476
485
502
495
471
495
498
489
464
485
488
481
453
479
478
453
445
471
471
448
453
469
470
441
455
475
478
452
485
497
496
480
517
533
531
525
556
571
559
563
603
610
598
617
636
643
623
637
655
656
627
643
656
641
620
641
641
623
604
621
616
598
576
592
587
550
545
561
551
520
528
535
527
493
509
515
510
481
508
510
497
483
512
516
501
494
518
522
497
503
529
531
505
526
536
535
513
531
542
541
516
538
546
529
517
546
547
530
527
547
548
527
522
540
537
505
510
526
517
490
508
511
501
471
492
497
490
463
489
490
468
459
486
485
463
465
482
482
451
462
479
481
452
476
482
473
449
473
476
467
446
469
472
447
442
467
467
443
449
465
464
442
450
466
466
437
454
469
460
441
469
473
463
450
474
478
468
457
488
494
476
483
518
529
513
540
561
575
559
589
613
621
607
644
652
648
636
668
673
661
651
671
671
639
638
654
650
614
620
624
614
584
594
595
587
553
569
570
546
528
549
546
521
509
526
524
504
496
517
517
487
494
518
516
493
516
525
524
502
526
536
533
508
538
540
521
510
539
539
517
518
535
535
505
515
531
529
497
520
523
513
488
510
513
504
481
503
505
479
472
497
496
472
474
491
489
466
471
488
488
458
472
487
474
453
478
481
471
453
477
479
467
450
476
476
449
446
471
471
445
454
467
466
436
452
465
464
436
461
463
447
429
457
459
445
432
454
457
429
429
454
455
429
443
454
452
427
444
456
454
429
448
462
444
434
464
469
456
457
484
495
483
487
523
532
516
533
569
581
567
600
618
627
611
638
654
655
634
664
667
649
636
662
659
636
628
641
633
597
600
609
605
566
579
579
565
537
552
550
538
510
529
530
503
493
515
514
489
492
508
509
486
493
510
511
481
493
512
506
486
515
520
511
493
516
520
512
493
520
520
497
495
521
522
499
510
524
524
494
508
521
519
486
510
510
496
474
499
499
485
469
491
492
463
463
487
488
460
474
484
482
456
469
479
476
446
464
474
458
443
470
472
454
445
467
469
453
445
469
469
443
448
473
471
447
467
478
475
450
471
479
475
450
478
480
459
446
474
474
452
447
465
464
433
441
460
460
430
453
459
456
432
457
466
463
442
469
479
462
456
489
494
479
491
513
524
509
522
550
559
544
566
596
601
586
622
633
632
617
644
652
644
623
647
646
616
608
626
616
587
584
592
581
542
550
555
548
509
527
526
507
482
503
501
485
467
489
488
460
458
483
485
460
473
486
490
467
485
500
501
476
496
512
501
485
517
519
507
498
520
524
510
500
524
526
498
501
524
520
495
513
522
518
488
506
514
509
479
503
503
482
466
490
489
470
461
480
481
451
458
481
482
452
473
480
477
453
476
482
478
452
476
483
461
449
478
478
456
455
473
474
453
455
473
473
441
451
467
460
435
458
463
454
432
455
462
455
437
467
469
447
443
472
476
453
460
478
480
451
467
487
488
460
491
498
496
482
518
532
527
524
553
566
551
556
588
594
578
595
611
616
594
608
622
619
588
604
612
595
575
596
595
575
557
574
570
552
535
552
548
516
514
529
521
492
502
508
501
470
486
494
491
462
489
493
479
467
497
502
487
483
506
511
484
490
513
515
486
507
516
512
486
506
514
510
484
505
513
493
481
509
509
488
483
500
499
478
475
493
493
461
471
490
484
460
483
490
484
459
481
484
475
449
476
476
453
445
471
472
450
455
471
473
440
452
469
471
441
465
469
459
438
465
470
461
442
466
471
446
443
468
467
442
448
461
461
437
447
462
462
434
451
467
456
440
467
472
460
447
468
471
459
446
474
477
453
458
488
494
475
497
515
523
505
530
551
559
545
585
596
591
581
616
627
616
612
635
639
612
614
634
633
602
615
622
612
581
592
593
584
549
563
563
535
517
536
532
506
496
511
507
485
478
494
492
459
466
485
477
452
473
478
474
448
473
481
477
455
487
489
473
468
499
503
482
486
505
506
475
488
506
507
477
501
504
496
474
499
501
491
467
489
489
461
454
479
477
451
455
469
466
442
447
460
456
424
436
449
438
417
445
447
435
420
444
448
437
424
452
454
428
428
454
454
428
439
451
449
421
439
451
451
425
456
461
449
433
464
470
458
449
474
478
451
453
478
478
448
463
474
470
444
461
472
467
439
457
466
449
435
464
467
450
447
468
473
455
453
478
482
459
471
500
506
488
518
534
540
528
558
575
576
561
598
605
591
585
617
621
603
604
622
622
590
599
614
610
573
588
588
575
547
563
561
551
522
541
541
514
504
527
523
497
498
513
511
485
487
503
503
473
487
505
496
476
504
509
502
484
508
513
503
489
515
516
491
489
517
518
492
503
517
516
483
500
513
510
479
504
505
489
468
492
493
476
463
484
484
457
457
481
481
454
470
482
481
456
474
483
482
455
474
484
467
451
478
479
465
457
476
477
459
451
472
470
442
446
467
464
440
460
469
467
440
460
468
463
436
463
464
445
433
463
465
446
445
465
466
437
444
464
464
435
458
465
462
439
462
469
465
442
466
471
451
445
474
476
456
460
477
479
459
467
488
492
466
483
507
510
494
533
545
551
547
580
597
596
590
628
636
621
623
653
658
638
648
662
660
627
640
649
643
606
624
622
602
577
592
586
567
543
560
555
522
518
534
530
497
505
513
508
481
494
504
502
472
492
507
494
480
511
514
504
497
521
526
515
509
537
539
515
521
547
547
524
543
553
551
524
542
550
546
516
543
541
520
504
530
528
509
503
522
521
490
495
515
514
484
504
511
505
478
499
504
499
473
495
500
478
466
493
493
470
469
488
489
468
471
491
491
461
473
492
486
462
487
492
484
462
486
492
483
461
486
486
460
453
480
478
453
457
473
475
445
459
476
475
446
473
477
465
445
473
477
467
452
476
480
454
451
475
476
449
459
472
470
446
457
470
469
441
458
472
462
447
479
486
479
475
504
519
513
515
554
564
552
565
603
617
601
629
645
652
632
654
670
671
645
672
673
655
639
663
660
639
627
644
641
604
604
617
613
575
586
590
578
549
563
565
558
526
545
549
527
513
540
539
517
514
533
534
514
514
533
537
509
520
543
539
517
542
549
546
524
549
555
548
526
553
554
530
524
551
550
527
534
549
548
516
528
544
543
510
535
538
526
503
527
529
518
498
520
524
500
496
520
520
492
498
511
509
484
493
508
507
478
493
507
494
474
499
501
487
472
494
495
481
467
491
491
463
464
488
488
463
477
490
490
463
483
495
494
467
497
501
486
471
499
500
484
479
502
505
483
488
512
512
484
500
509
504
479
496
505
501
473
493
500
482
468
495
496
478
474
494
495
477
473
493
491
460
467
487
485
463
491
502
508
493
525
544
548
537
579
589
584
585
626
639
626
638
658
664
638
649
665
663
631
650
651
637
609
627
624
611
580
596
592
561
550
569
564
532
531
544
536
508
509
521
517
485
497
511
500
480
507
511
501
485
509
514
504
490
519
523
502
503
532
535
513
529
543
545
520
539
555
555
527
555
557
541
522
550
551
535
522
543
543
512
512
532
530
499
512
521
515
488
501
510
506
476
492
500
481
467
495
496
477
468
489
488
468
463
483
483
456
463
485
484
461
484
494
491
466
490
499
494
470
500
502
483
473
502
503
484
484
503
505
476
485
505
505
475
496
501
493
469
490
494
485
459
482
486
462
455
483
483
460
465
479
480
458
465
486
489
465
483
508
510
497
538
551
556
553
584
607
608
607
647
656
642
646
679
685
665
678
693
695
667
682
691
688
651
671
670
650
624
642
636
616
593
607
597
561
556
571
563
526
532
537
528
499
510
518
514
483
500
510
492
478
506
509
494
490
515
522
509
506
534
540
520
529
558
560
538
560
570
569
543
564
573
568
541
566
566
543
530
555
553
531
525
543
541
506
512
530
527
493
511
516
507
480
499
502
493
465
486
487
461
452
477
479
457
458
476
477
455
460
478
478
448
461
479
472
449
477
482
474
456
479
486
478
461
490
493
470
467
494
494
470
477
490
488
457
473
485
483
453
479
482
471
451
477
479
465
450
471
475
449
449
473
473
448
463
475
478
455
475
493
497
478
505
530
531
525
569
581
583
592
625
645
639
643
676
684
665
674
702
705
682
700
709
704
672
689
691
682
645
662
656
629
610
629
621
597
585
599
593
556
557
569
564
526
539
542
530
501
517
519
512
484
506
512
491
481
512
514
497
503
523
527
509
515
538
541
513
527
548
544
522
550
555
551
533
557
563
554
533
558
557
530
524
547
542
516
519
530
524
488
499
509
504
470
492
493
479
457
481
483
469
453
476
477
450
449
475
476
450
461
473
473
448
462
474
473
443
462
473
459
442
470
472
457
446
467
469
455
445
469
471
444
449
476
476
452
469
479
478
449
469
479
476
449
475
476
457
445
473
475
457
451
472
474
445
453
476
478
453
480
492
496
478
510
530
534
524
558
583
580
583
628
641
638
653
679
691
676
684
706
707
677
687
702
691
664
680
680
664
632
648
642
627
594
610
604
569
556
570
559
527
523
533
524
488
497
508
507
475
499
503
492
472
499
504
495
482
509
515
494
495
524
526
503
516
531
534
510
524
538
539
509
527
540
528
508
536
537
520
505
526
524
507
493
514
512
480
480
500
494
467
479
488
482
453
471
481
476
447
473
475
455
441
469
469
451
444
466
468
437
443
465
464
434
455
464
460
435
457
465
462
437
461
469
450
439
469
472
452
450
469
470
448
447
466
465
435
447
467
460
435
458
464
458
438
462
469
463
445
476
480
462
460
495
504
488
506
530
544
528
551
581
589
575
615
627
630
617
651
663
658
648
672
678
653
649
670
666
635
636
643
633
602
602
603
596
556
566
569
545
521
540
536
515
495
512
508
491
475
496
496
468
469
493
494
471
491
505
510
489
512
529
529
507
539
543
531
519
550
554
539
535
556
558
529
535
558
559
529
548
555
551
524
542
547
540
509
529
532
509
494
521
521
499
497
514
513
491
488
504
502
469
477
492
482
455
476
479
471
445
466
470
464
442
470
471
449
442
469
467
444
448
465
464
431
443
459
457
426
451
456
446
426
454
461
454
439
463
470
446
443
471
473
450
462
479
482
459
477
500
504
485
509
537
540
533
576
590
595
599
631
651
647
646
680
685
664
669
696
696
671
685
693
687
653
667
669
661
624
642
637
608
586
600
592
567
549
562
553
516
514
529
525
490
503
508
499
471
487
494
489
463
485
493
477
467
500
505
490
494
517
525
510
515
542
545
520
532
555
551
528
553
561
555
529
552
557
549
525
550
549
523
514
538
535
508
508
522
519
483
494
509
507
473
497
500
489
466
491
493
482
462
485
486
458
454
479
480
453
461
476
475
452
464
479
479
452
471
486
476
458
489
492
480
468
493
494
479
465
487
487
459
460
481
478
452
467
477
477
447
466
475
473
446
475
479
466
457
493
505
496
501
533
548
536
551
587
601
589
622
641
652
635
664
682
684
663
687
697
680
666
692
692
669
659
672
665
641
632
642
638
599
602
615
606
579
597
599
589
559
577
573
560
528
549
546
517
506
531
530
507
512
530
533
504
518
538
541
512
541
548
542
521
549
557
549
534
559
562
538
535
562
561
535
545
558
559
534
543
555
553
522
538
550
534
514
539
538
521
504
527
529
512
495
516
514
484
485
509
506
478
490
499
494
462
478
488
484
453
477
478
462
446
475
478
463
457
479
482
458
463
487
489
462
482
491
487
460
476
483
479
452
476
486
468
458
489
493
475
476
499
503
486
488
514
518
496
510
541
548
532
568
583
594
586
619
640
645
634
673
681
669
665
698
702
680
683
696
693
656
663
672
667
627
642
640
620
591
607
600
584
556
572
565
532
521
540
535
504
506
518
511
483
488
499
497
468
485
502
493
477
506
511
500
490
514
522
511
501
529
532
509
511
538
539
517
533
546
544
517
537
550
548
518
544
543
523
504
528
527
507
494
514
512
479
480
497
496
465
482
489
484
457
474
480
476
447
468
475
454
441
469
471
452
450
470
473
454
453
478
480
453
462
486
482
458
483
492
489
467
491
498
492
469
496
496
473
464
492
493
472
477
496
501
476
494
520
526
508
546
562
567
555
595
616
618
614
645
663
652
655
688
693
674
684
699
699
674
681
689
684
648
658
663
644
619
637
636
616
594
610
608
591
570
588
583
550
544
561
553
521
529
536
530
497
514
524
523
495
524
529
517
504
537
543
529
526
549
555
529
535
559
560
535
552
561
557
531
549
555
551
521
542
550
532
519
545
547
525
519
538
535
514
508
524
523
488
494
511
505
479
500
507
500
475
498
504
496
471
500
500
479
470
499
500
478
479
496
495
463
475
492
492
460
486
492
482
461
486
490
482
464
489
494
468
463
489
488
463
470
485
484
460
471
489
490
464
484
507
505
494
534
547
552
553
586
608
608
611
653
665
657
667
704
716
696
717
732
735
709
726
733
729
696
715
713
690
669
685
680
658
639
654
648
614
613
629
624
591
603
608
600
572
586
589
582
551
568
572
551
537
561
560
539
534
554
558
541
542
565
567
541
550
572
569
545
569
577
574
548
571
577
571
544
570
569
544
534
558
555
530
530
546
546
513
524
540
539
504
525
528
518
492
516
520
509
484
507
507
479
473
498
498
472
478
493
493
469
478
494
493
462
479
494
485
466
494
499
487
472
495
498
486
471
496
498
475
475
500
500
473
487
500
503
476
495
507
505
477
504
506
491
474
502
502
485
477
500
504
479
485
516
522
504
534
552
562
548
582
607
614
604
636
662
659
658
699
708
699
702
724
729
711
707
728
727
695
698
710
698
668
679
680
664
630
644
642
630
594
612
605
574
559
577
571
544
538
551
546
510
517
530
528
495
518
522
516
494
519
522
514
497
523
529
509
507
538
541
518
528
545
548
527
538
555
555
525
540
554
542
520
546
547
533
514
534
535
520
500
520
517
486
483
505
503
476
488
500
498
467
486
497
495
466
493
496
480
464
491
496
479
470
491
492
463
466
488
488
458
475
484
481
456
473
479
475
447
466
473
454
442
470
473
454
450
470
472
453
450
470
470
440
449
469
465
442
466
475
474
454
482
497
498
483
524
535
528
529
574
591
579
596
623
639
622
640
667
673
650
682
688
682
659
681
684
673
647
663
659
624
611
627
623
588
587
595
586
555
554
561
554
516
526
534
518
494
517
518
503
487
509
511
498
481
508
509
483
485
513
515
491
506
520
521
492
511
524
523
494
521
525
513
497
523
526
509
499
520
521
492
495
518
516
485
498
506
500
471
484
487
481
449
466
473
451
437
463
465
446
441
462
463
443
439
461
461
430
436
457
452
428
449
455
451
426
451
459
456
430
459
460
438
428
455
455
432
433
449
448
416
424
441
441
408
432
437
427
404
429
434
425
406
429
434
410
406
433
434
411
420
437
438
415
421
439
439
410
427
446
439
422
456
465
464
462
496
515
514
515
557
570
561
572
612
626
610
634
654
662
640
660
675
674
645
669
668
649
627
646
638
616
594
608
600
562
558
571
564
527
535
539
529
497
508
510
504
470
487
492
469
454
480
481
462
457
478
481
463
461
486
490
465
475
501
501
478
501
511
508
484
509
516
511
487
515
517
495
485
511
510
486
485
500
497
465
473
488
487
454
476
479
471
446
469
472
462
439
461
465
441
434
462
463
437
442
458
459
435
442
456
455
425
440
457
446
426
451
455
443
427
450
453
440
426
452
452
427
426
452
452
427
438
451
449
420
438
450
448
417
445
448
434
417
442
444
429
414
436
435
405
405
428
427
399
416
425
425
400
418
430
429
402
424
437
423
412
443
448
434
436
461
471
458
464
498
505
492
509
544
555
539
575
592
601
587
615
632
633
613
645
647
626
615
640
637
611
608
619
611
570
574
580
575
536
549
549
534
508
526
523
511
483
503
501
473
465
486
485
457
461
473
471
446
451
468
468
442
458
477
470
451
483
489
481
467
492
497
488
473
500
501
475
474
499
499
473
485
496
495
461
479
489
489
456
481
483
467
448
473
473
455
441
461
460
430
430
453
453
424
438
449
447
421
438
447
445
418
437
447
431
417
444
447
428
422
442
443
425
419
439
438
409
417
437
433
408
429
435
432
407
430
438
432
407
434
436
414
404
432
435
415
417
435
439
412
427
445
448
420
446
451
445
423
448
454
446
428
453
462
443
444
479
487
474
492
515
529
514
534
562
572
556
579
603
603
588
621
627
620
604
626
629
615
595
613
610
575
569
583
574
544
546
552
545
506
518
519
511
474
493
491
471
451
472
470
452
437
457
457
429
430
454
454
427
445
458
459
435
453
466
467
440
463
475
461
449
480
485
468
463
486
487
468
463
484
483
451
456
475
469
442
462
466
460
432
453
455
449
422
447
447
425
415
443
446
422
424
441
442
412
422
440
440
408
433
439
433
412
438
445
437
415
440
446
424
419
445
447
424
430
447
448
424
431
449
447
416
429
444
433
411
437
440
426
408
430
431
417
401
427
428
403
402
426
426
400
411
424
423
393
411
424
424
397
429
435
426
412
447
456
447
446
475
488
472
485
522
531
522
556
576
588
572
597
615
616
593
616
628
613
600
628
628
608
598
614
610
587
575
588
584
547
549
561
549
520
534
537
526
493
513
514
507
477
502
500
476
464
488
486
465
465
483
484
454
466
485
485
456
483
488
483
462
489
495
488
468
490
493
469
463
488
489
463
469
484
481
457
462
476
475
443
457
473
461
439
464
465
453
434
458
459
446
430
454
455
429
429
454
455
430
445
459
460
431
449
463
462
433
463
465
452
439
468
471
459
450
472
473
446
450
473
474
445
461
472
471
445
462
468
465
436
454
460
440
425
450
450
431
424
443
445
426
421
441
443
414
421
444
441
418
440
447
443
419
442
452
449
426
457
462
447
442
477
489
476
490
516
531
514
535
566
575
558
593
604
605
587
617
628
621
601
623
623
597
588
610
606
577
575
584
574
544
542
547
540
501
510
515
496
469
488
488
469
447
466
463
448
430
453
453
426
426
453
453
428
444
457
459
431
451
466
468
442
473
477
467
454
486
491
477
468
492
496
469
473
496
496
467
484
493
488
461
476
482
477
447
465
470
450
437
465
465
446
440
458
458
438
433
452
453
422
429
448
443
418
440
446
440
415
439
447
439
415
443
445
424
415
442
443
420
424
442
443
411
423
442
443
414
439
444
434
410
436
439
431
409
434
440
416
411
441
443
420
431
448
450
430
443
463
466
443
463
486
485
472
510
520
521
516
548
562
556
551
585
592
576
582
612
616
594
610
622
620
587
602
608
604
568
588
586
564
542
560
555
533
515
530
526
490
488
503
499
464
476
483
478
450
465
474
471
442
463
472
456
446
480
485
470
469
490
495
476
476
499
502
474
484
507
505
481
504
512
507
481
505
509
501
477
503
504
481
471
497
496
474
474
490
489
456
466
481
480
448
474
478
469
447
472
477
466
446
469
472
448
444
471
472
447
454
468
468
444
453
467
466
436
453
468
457
439
465
470
457
443
466
468
456
441
467
465
435
436
459
458
432
445
456
454
427
446
459
456
426
452
455
440
427
458
464
452
450
478
488
471
484
519
528
517
549
568
581
566
598
621
625
609
636
653
640
633
665
668
651
647
664
663
643
634
645
641
603
606
618
603
572
583
582
566
533
550
547
534
502
520
516
488
478
500
496
474
476
493
492
461
474
492
494
466
495
503
497
478
509
515
508
494
519
528
506
505
532
531
508
518
532
531
505
514
525
522
490
504
516
501
481
505
508
493
475
497
498
483
471
495
493
464
466
489
486
460
474
485
483
455
474
484
482
456
484
487
471
458
487
490
471
464
486
488
458
463
485
485
455
475
483
480
453
472
480
475
449
471
478
458
446
475
475
453
451
472
473
454
453
475
475
445
456
475
469
445
470
476
470
450
475
483
479
463
497
504
490
492
531
545
531
550
575
591
575
598
627
634
615
649
657
654
636
663
667
656
637
658
657
627
621
637
631
597
598
605
596
566
568
572
565
530
541
543
519
496
514
513
495
479
499
500
484
472
498
498
472
476
503
504
480
498
512
513
489
511
525
524
498
525
528
511
497
525
526
508
502
523
524
493
497
516
516
483
499
504
497
470
488
492
484
453
473
475
452
440
466
465
443
442
459
459
438
439
459
458
428
440
458
452
429
455
462
455
435
460
467
460
443
471
473
450
447
475
476
453
460
475
475
446
460
475
474
444
471
475
462
443
471
474
462
446
469
473
445
443
469
470
447
463
478
484
464
488
510
516
499
525
552
551
544
585
595
594
596
624
637
627
624
653
656
630
633
655
649
620
632
637
627
592
608
608
599
561
579
573
545
526
545
538
514
502
517
511
475
479
494
491
457
476
481
474
449
473
480
476
456
482
493
475
469
501
504
485
491
510
513
493
499
519
521
494
507
526
519
498
524
528
518
496
518
519
508
486
510
510
483
478
503
500
474
481
495
491
459
472
485
483
450
476
477
465
446
471
474
461
445
467
470
443
445
470
471
445
459
472
470
447
461
472
469
442
462
473
458
444
471
472
456
448
468
473
456
449
472
470
440
445
467
465
440
460
470
467
441
464
474
471
449
484
490
481
479
518
534
523
537
566
583
568
586
618
627
609
642
653
655
635
661
670
664
641
663
666
640
630
651
647
617
613
621
614
583
577
582
575
534
541
549
532
507
527
528
514
492
514
514
500
482
508
509
485
483
511
512
488
500
516
517
489
508
523
524
496
527
532
520
502
532
536
523
513
536
539
511
513
535
535
506
521
531
527
501
515
521
516
486
505
512
492
477
501
501
482
475
492
490
471
465
485
484
453
458
480
474
448
468
475
469
444
468
475
471
447
478
479
461
453
482
486
467
472
491
496
468
482
501
503
473
497
501
491
468
490
491
480
454
475
476
449
442
468
468
443
448
463
462
440
448
463
463
435
451
469
463
449
484
493
490
486
519
536
532
533
572
584
576
587
627
640
624
649
667
676
652
671
685
683
653
675
674
653
634
652
647
627
610
625
617
581
578
592
587
551
562
565
553
521
530
532
523
490
509
514
491
477
504
503
484
482
503
506
488
489
513
515
487
498
521
520
497
523
530
528
506
532
540
536
516
546
550
528
520
546
545
521
524
539
538
505
516
527
522
487
509
508
495
471
493
495
483
464
486
488
462
458
484
485
460
470
484
485
461
475
489
489
459
479
495
484
468
497
501
487
475
498
500
487
477
501
501
473
474
497
494
467
481
490
485
456
473
482
478
449
475
476
456
442
470
471
451
444
464
467
440
447
471
473
450
480
494
502
485
521
543
548
539
573
594
591
593
635
646
638
648
671
678
661
664
680
681
647
657
669
656
629
644
641
622
591
606
600
583
554
571
564
531
520
538
530
501
501
512
507
473
486
499
497
466
493
497
487
470
502
508
499
488
513
520
498
501
530
535
513
530
545
547
521
539
552
550
519
537
545
528
509
533
532
511
498
518
516
497
484
507
506
474
476
497
493
467
485
494
489
459
481
486
480
452
480
480
460
446
476
476
456
455
476
476
445
453
473
473
444
465
471
465
439
462
467
460
436
459
464
442
436
464
466
445
451
468
470
449
456
474
473
442
455
472
461
439
463
467
457
438
463
467
456
442
469
471
447
445
472
472
447
457
471
472
446
466
488
493
474
515
527
529
521
565
585
583
588
621
641
631
642
676
684
664
684
695
695
670
681
685
678
645
659
661
636
616
636
631
606
591
603
596
572
557
568
562
524
524
538
526
497
514
518
512
486
509
514
510
485
513
516
497
490
522
527
510
517
538
543
517
529
547
548
518
545
551
545
523
551
557
548
527
550
553
529
522
545
543
515
521
535
530
503
506
517
512
479
491
502
486
462
487
488
474
456
478
480
467
451
475
474
448
448
473
472
448
464
477
478
449
468
480
478
449
476
479
465
450
479
482
465
458
479
480
451
453
475
475
444
461
468
462
435
453
460
456
428
449
456
436
424
451
450
428
422
439
438
416
415
434
434
405
414
435
430
407
433
439
433
412
436
444
440
422
455
461
448
448
485
498
485
504
531
549
534
558
591
602
590
628
640
641
628
661
672
665
649
674
678
651
645
665
662
630
634
640
631
599
598
600
592
553
563
563
542
517
536
534
513
492
510
507
489
473
493
491
461
462
484
482
458
476
488
487
464
486
500
498
476
506
510
494
483
515
519
503
502
525
531
506
515
538
539
508
529
534
527
500
519
524
518
491
515
519
497
487
513
513
490
490
507
506
483
483
498
496
462
471
485
472
447
469
471
460
438
461
464
453
434
461
461
437
433
461
461
439
447
462
461
430
445
461
460
430
456
460
448
431
461
465
452
438
462
463
436
435
459
459
432
446
457
456
429
444
455
453
425
444
455
440
425
452
454
438
431
455
461
445
442
472
478
460
472
507
517
501
536
552
561
550
581
602
607
592
631
638
626
618
651
655
637
634
651
649
615
619
633
629
592
606
605
591
563
577
576
564
535
553
549
518
506
526
523
494
493
505
503
478
480
496
496
464
475
493
484
464
491
496
489
474
499
507
498
487
518
521
499
498
526
528
503
514
526
525
495
510
523
519
484
509
510
494
474
499
498
479
465
486
485
453
454
474
472
441
454
463
459
433
451
460
458
431
452
462
444
431
459
461
443
438
458
462
443
440
463
465
436
445
467
464
438
461
468
463
437
460
465
459
433
460
461
439
428
456
458
436
438
455
457
429
442
460
460
429
454
459
449
427
451
456
446
427
452
457
433
429
456
456
434
444
459
457
433
440
455
455
427
444
462
457
443
480
492
492
491
524
541
537
541
580
590
578
588
623
631
610
631
646
647
621
640
649
644
611
631
629
607
590
610
603
582
566
582
576
539
539
553
548
511
522
527
519
491
506
511
504
474
493
501
480
468
497
497
477
476
495
496
478
479
502
504
476
487
507
502
480
507
513
507
483
507
512
505
482
508
508
484
477
502
504
480
485
499
499
466
478
491
487
454
479
482
469
447
471
474
463
445
467
470
443
441
467
466
438
450
463
461
437
451
467
466
437
455
468
454
435
464
468
452
440
462
465
449
439
462
462
433
436
458
455
429
445
454
453
424
443
454
451
423
451
453
434
421
448
450
430
425
444
443
413
419
440
440
411
432
440
437
414
438
446
442
418
443
451
431
424
454
457
441
449
470
480
464
476
501
509
495
516
545
550
538
575
587
588
575
602
611
604
589
617
617
593
588
612
608
582
585
594
586
549
559
566
559
523
542
542
523
499
520
517
501
482
499
496
463
460
479
478
447
460
472
470
446
462
475
474
447
469
481
470
458
488
492
478
476
500
504
487
481
504
504
475
479
500
493
467
486
494
489
459
478
482
478
447
474
473
448
436
462
462
440
438
457
457
427
437
456
456
425
450
455
449
427
451
458
450
428
451
455
430
424
452
454
432
438
455
456
434
443
461
463
434
448
465
455
434
459
463
451
434
457
462
450
434
461
461
434
432
457
456
431
444
457
457
427
444
457
456
427
455
460
448
432
465
472
461
456
483
494
475
485
520
527
510
537
552
563
545
572
590
591
571
594
606
591
579
607
608
589
582
598
596
574
564
578
572
537
540
553
543
515
529
530
518
485
505
504
494
463
487
486
461
451
476
477
454
459
478
480
453
467
487
489
462
491
498
493
474
502
510
503
487
512
519
497
495
524
526
503
513
528
528
505
514
526
523
490
502
512
495
473
496
496
480
464
485
484
469
454
477
476
448
447
470
467
441
454
465
462
433
454
464
461
435
464
467
452
439
468
470
453
448
471
475
449
455
480
482
454
473
480
475
449
469
476
471
444
466
473
453
442
472
475
456
456
477
478
458
457
478
480
449
460
478
474
453
482
490
490
475
504
518
517
510
550
559
549
551
589
601
584
601
623
630
607
624
643
643
615
639
641
628
605
625
623
607
584
602
599
565
558
576
572
540
544
552
544
516
522
529
525
492
508
516
500
484
511
513
499
490
512
517
503
497
524
526
501
508
533
535
512
531
542
543
519
541
551
547
520
547
548
529
515
541
541
520
514
532
531
500
505
523
521
488
507
511
503
478
499
503
496
473
496
499
477
465
490
489
465
467
481
481
459
463
480
480
451
464
481
473
452
479
484
477
457
480
482
471
453
479
480
454
450
475
473
449
458
471
469
441
456
468
467
437
464
468
455
437
465
468
457
442
464
466
441
443
470
472
449
469
485
491
471
497
519
525
510
538
564
562
560
601
611
606
611
638
649
638
638
665
668
642
649
671
665
638
650
653
641
605
621
619
608
569
589
584
557
543
565
559
535
530
544
540
506
512
526
524
490
511
515
508
484
507
512
506
486
512
517
497
494
522
524
503
512
529
532
511
520
539
539
509
524
540
529
509
534
534
521
503
524
525
512
495
517
515
487
484
507
503
478
489
501
499
467
484
493
490
457
483
486
470
454
480
484
468
459
482
484
457
461
486
488
462
478
488
485
459
477
487
484
457
477
485
467
455
482
483
463
459
480
482
463
461
482
483
453
462
483
480
456
480
485
479
453
476
482
476
455
486
490
473
468
504
514
501
519
545
559
544
567
596
608
593
632
644
644
627
659
668
661
646
668
671
646
641
662
660
633
635
644
637
608
610
616
610
573
583
588
565
541
560
556
535
515
534
530
514
497
517
516
487
487
511
511
486
503
516
517
491
512
526
527
503
535
538
525
513
543
546
529
525
546
551
522
528
549
550
520
540
547
541
515
534
539
534
507
529
533
509
497
522
521
496
493
510
509
486
483
500
500
468
480
496
491
467
493
498
491
468
492
497
489
469
496
497
475
469
497
497
473
480
497
496
464
477
490
487
457
485
489
478
457
485
489
477
459
482
483
456
455
479
479
453
464
477
478
453
467
481
481
452
472
486
475
460
493
500
493
492
521
536
528
533
571
581
570
584
623
636
621
651
667
675
656
682
698
697
674
704
707
689
675
699
693
671
659
672
666
626
626
637
630
591
605
607
594
565
579
577
568
537
557
554
527
517
541
539
515
517
535
536
515
523
542
543
515
530
550
544
524
553
557
551
535
559
564
553
535
561
562
537
533
558
556
531
540
553
551
519
533
546
544
511
535
534
517
496
521
521
506
490
512
514
485
485
508
507
480
495
505
501
475
489
499
496
468
486
495
476
461
488
489
469
463
484
484
467
461
483
483
454
461
485
484
462
485
495
494
469
493
501
498
472
499
499
476
466
494
494
472
470
487
486
453
463
480
479
448
471
475
466
442
467
470
461
440
464
467
445
440
471
473
455
470
493
504
490
512
544
553
539
564
595
602
594
636
649
650
645
671
680
670
658
684
685
658
655
673
668
639
642
648
637
596
609
609
601
562
580
577
552
529
546
540
518
500
519
517
484
485
504
503
472
489
498
496
471
494
507
506
485
512
527
511
502
534
538
522
523
543
546
526
527
548
548
519
527
546
541
516
538
543
535
509
531
533
523
496
521
520
494
487
513
512
487
491
505
503
469
481
497
494
460
483
485
473
449
474
477
466
447
471
476
450
448
476
477
453
464
477
478
453
465
481
482
454
473
488
477
459
488
490
477
464
487
490
475
462
483
483
452
452
473
469
442
456
465
463
434
453
462
458
431
459
462
447
436
468
474
459
461
486
495
474
486
519
527
511
543
559
566
552
585
604
607
592
621
635
621
613
644
647
629
629
646
644
619
618
629
624
587
594
604
589
560
578
578
565
536
554
552
538
514
536
533
506
499
523
520
495
500
514
512
481
496
512
510
480
506
510
498
480
509
513
502
491
516
522
499
499
525
525
499
512
525
524
497
512
523
522
491
510
519
502
484
507
508
489
476
496
495
476
465
485
484
453
458
479
474
447
464
471
465
437
459
468
466
441
472
474
455
443
471
474
453
452
471
472
441
450
473
473
445
469
475
467
442
466
473
466
444
467
473
450
444
470
470
444
448
462
462
437
438
452
452
420
433
450
442
421
448
454
443
428
451
455
445
428
454
458
432
431
461
467
445
462
484
495
479
505
531
541
528
570
584
587
579
620
636
629
626
652
662
640
644
667
669
642
656
663
658
629
637
640
631
594
607
607
579
559
577
573
545
530
545
537
516
506
521
518
485
490
508
502
477
497
503
498
472
496
502
498
474
503
505
485
475
506
508
489
494
514
520
494
507
528
528
496
521
525
515
491
516
518
506
483
506
507
481
475
500
499
473
478
492
489
465
472
484
481
451
467
482
470
450
477
480
465
449
472
474
461
448
474
474
448
449
474
474
447
462
473
471
444
462
474
472
444
472
474
458
443
471
473
457
449
471
475
448
453
476
478
450
468
476
469
443
461
469
465
438
459
467
447
435
464
465
445
443
462
462
441
439
462
463
435
447
470
470
451
482
494
500
491
524
544
547
542
584
594
582
583
623
632
616
628
647
652
623
638
654
653
619
640
639
622
595
613
608
589
563
580
573
538
529
544
539
505
507
514
506
475
481
488
485
453
470
481
468
449
477
481
467
457
479
485
473
467
495
497
472
478
507
510
487
506
519
519
494
515
528
526
500
529
530
513
499
526
527
506
499
518
516
483
488
504
502
471
489
494
487
461
480
484
477
450
472
478
456
448
475
475
455
458
476
475
453
458
476
476
445
458
477
469
445
470
473
463
442
466
469
460
440
467
468
443
439
466
466
444
454
469
468
439
455
468
467
439
467
473
462
444
472
478
465
453
476
479
453
454
479
482
461
482
497
506
489
516
538
545
529
557
579
579
572
611
621
616
619
647
654
642
637
661
663
634
638
658
651
624
637
642
632
597
613
610
599
563
582
578
549
530
548
540
514
505
518
511
475
482
497
494
459
481
485
477
453
479
486
482
463
491
499
481
478
508
513
492
503
520
524
502
510
530
530
502
517
533
524
503
529
532
520
501
521
524
509
487
510
507
476
472
494
489
460
468
477
474
440
456
467
465
434
461
464
449
433
463
466
453
445
469
474
449
452
477
478
452
469
480
479
455
471
480
477
446
466
475
457
444
473
474
455
452
472
474
454
450
470
472
442
449
470
466
442
464
471
468
444
468
475
469
446
475
476
455
447
477
482
462
472
494
505
483
503
534
543
526
564
579
588
578
620
638
638
629
659
671
652
649
678
678
654
659
670
665
639
642
649
643
605
613
616
596
570
586
582
561
538
554
546
527
506
525
522
491
490
512
508
482
498
509
509
483
505
519
517
493
524
529
516
504
534
539
524
519
541
543
515
519
543
542
514
535
544
541
516
537
544
538
510
531
536
511
498
523
521
496
491
509
507
484
483
500
499
467
477
494
486
460
484
489
481
459
481
486
478
456
483
482
460
454
482
484
460
467
483
484
454
469
485
484
456
483
487
477
457
483
485
473
456
478
480
452
450
475
476
450
462
476
475
450
463
473
470
440
457
467
452
435
464
468
455
448
473
480
469
466
499
506
490
502
540
551
534
568
585
598
584
614
635
639
620
655
661
648
636
662
663
641
633
649
644
607
609
620
615
578
591
591
577
548
562
559
547
514
530
527
497
484
507
503
477
477
492
491
467
472
489
491
462
478
498
495
478
508
517
511
494
520
525
515
499
525
527
504
502
529
529
505
514
527
525
491
506
517
515
482
507
508
494
474
499
500
484
471
492
492
463
465
488
488
459
474
484
483
457
473
484
481
453
472
484
466
454
481
481
465
457
477
480
462
458
481
482
453
460
483
481
456
478
485
480
453
475
483
478
453
483
484
464
454
482
482
460
459
477
478
447
457
475
475
445
473
480
477
459
493
507
508
502
537
556
552
558
603
615
608
630
654
666
652
666
686
688
660
676
690
679
658
682
683
667
644
662
658
639
615
629
623
587
581
597
587
556
560
567
559
525
539
544
539
506
529
528
510
493
521
524
508
500
523
526
500
504
530
532
507
528
538
539
515
535
546
545
518
542
551
531
519
546
546
525
521
538
539
519
513
531
528
495
501
518
509
482
504
507
497
469
489
492
482
455
478
478
453
446
472
472
448
453
469
471
440
453
470
470
441
468
472
464
443
470
475
466
451
477
482
459
457
483
485
460
471
484
485
460
472
485
484
452
469
481
470
452
479
480
465
452
475
476
462
450
477
478
452
457
485
489
469
494
511
522
506
534
559
566
553
595
606
608
605
648
662
652
657
682
691
666
675
698
699
668
684
687
676
646
658
654
643
608
626
623
593
579
598
594
564
560
571
564
537
535
546
542
505
514
527
516
490
515
520
512
493
519
525
517
501
531
535
514
512
543
546
524
535
551
554
525
541
556
556
528
554
559
547
529
556
559
546
531
552
553
522
520
540
538
507
515
523
516
487
498
504
498
465
481
490
472
456
481
483
466
458
479
480
462
453
476
476
446
450
472
468
442
462
470
467
438
460
467
461
433
463
462
443
434
463
465
446
446
466
468
437
449
469
468
438
462
468
464
440
465
469
460
436
458
463
440
434
463
466
446
458
481
489
472
492
521
530
515
539
572
579
571
614
628
633
630
660
673
667
657
686
687
663
661
682
677
648
651
656
646
607
617
618
611
571
587
582
556
534
551
541
517
497
513
507
472
473
490
489
457
474
483
483
459
480
494
495
472
497
512
500
492
526
531
518
520
542
545
527
525
546
547
517
525
544
538
511
533
539
531
505
527
531
521
496
521
520
493
483
508
504
478
479
494
491
455
467
480
477
443
465
467
456
432
457
459
448
430
451
454
425
422
448
448
421
432
445
445
422
434
449
449
421
441
455
443
426
454
458
445
435
459
463
449
440
468
470
444
448
473
473
448
467
478
478
451
470
482
482
458
491
498
486
477
514
528
518
526
556
571
560
577
615
627
615
649
665
673
655
682
696
693
668
691
695
670
655
675
671
641
632
641
629
598
590
594
587
547
550
558
540
510
526
524
507
478
499
497
484
460
485
486
460
457
483
483
461
472
488
490
462
481
500
501
476
506
511
502
484
513
517
506
493
517
520
494
495
519
521
494
508
518
516
489
503
513
509
478
495
503
484
468
492
494
474
465
487
488
469
461
483
483
454
459
482
480
455
476
483
480
452
476
481
476
450
481
481
462
450
478
478
456
456
474
474
442
452
471
472
441
463
469
464
440
463
468
463
441
465
470
446
439
465
466
441
447
464
464
441
447
464
462
431
444
459
447
427
456
462
455
444
473
485
479
478
518
529
520
529
570
588
574
602
623
635
615
639
659
661
636
665
669
655
636
660
656
636
618
633
625
587
582
593
587
549
556
558
545
511
520
520
512
477
495
496
473
458
482
484
464
461
480
483
463
462
485
488
462
474
498
497
476
503
513
513
492
517
527
521
500
529
531
508
500
529
529
505
510
525
525
492
505
521
519
485
507
508
494
468
489
489
475
452
475
477
449
444
469
467
439
448
461
457
430
439
451
450
419
435
448
436
419
448
451
438
426
449
454
439
430
457
457
429
431
456
454
428
446
457
455
426
445
454
450
421
448
449
430
416
444
445
426
423
443
445
416
421
442
441
411
433
440
435
412
441
453
452
434
464
481
475
475
518
528
522
540
567
583
572
588
616
624
602
620
643
639
618
644
647
636
609
628
625
613
585
603
597
563
551
568
558
530
527
535
523
483
493
501
494
456
477
476
459
437
461
462
448
433
455
460
435
438
468
471
449
470
485
490
471
493
510
510
486
507
521
510
497
527
529
514
505
525
525
506
497
517
517
487
490
509
501
475
491
497
491
460
480
485
478
449
476
477
456
444
472
472
450
448
465
465
433
443
462
461
428
449
453
446
424
448
453
444
422
447
453
433
429
458
458
437
445
462
464
439
447
465
465
435
449
465
456
435
463
467
455
439
462
465
454
439
466
467
442
442
470
470
447
464
481
487
464
489
512
517
500
538
546
547
540
578
591
584
586
611
620
597
603
629
631
605
622
631
626
598
612
613
606
574
589
589
566
548
566
564
538
531
547
541
517
509
522
518
482
487
501
492
464
485
490
484
461
484
492
487
466
498
501
483
478
510
516
494
501
519
522
493
506
526
527
498
524
529
520
498
522
525
513
492
513
515
486
482
508
508
482
490
501
500
474
483
495
492
459
474
484
469
448
474
476
460
446
468
469
455
442
465
466
439
440
464
464
439
455
467
466
439
459
469
468
441
469
471
454
442
469
472
452
445
466
466
435
441
462
462
432
455
462
459
437
461
469
466
441
467
477
459
451
481
485
469
476
499
508
491
505
532
541
524
546
576
580
565
601
612
616
602
631
641
635
618
646
649
622
614
637
632
605
608
617
609
572
582
587
582
544
565
564
544
522
542
540
523
504
522
519
490
487
508
507
479
489
498
496
470
484
496
494
466
485
499
486
473
504
509
496
491
515
519
503
497
521
523
496
501
523
518
493
510
517
511
481
501
505
499
469
495
495
471
457
483
482
461
459
476
476
444
452
470
471
441
467
473
469
445
468
473
466
444
469
478
457
453
482
483
460
465
482
482
458
463
479
477
445
457
473
460
438
464
466
454
435
458
460
448
434
463
465
440
440
467
468
443
456
469
471
444
464
482
485
464
501
507
507
499
540
556
551
554
584
598
583
594
626
632
612
634
648
649
624
640
645
640
608
623
624
598
580
599
594
566
553
566
557
532
520
533
528
493
497
511
502
477
496
499
489
460
482
486
479
455
484
485
464
459
490
495
475
484
504
510
484
499
519
523
495
522
529
522
501
529
532
524
506
530
534
508
504
529
530
504
513
526
523
498
506
517
513
480
496
508
491
471
496
495
476
460
481
481
465
451
473
472
443
443
465
464
440
458
470
470
443
462
475
472
446
474
475
456
444
472
477
460
455
478
479
451
457
478
478
449
467
476
471
447
468
476
472
447
470
480
463
456
492
498
486
497
523
537
524
541
572
582
568
590
622
628
614
649
660
661
647
674
683
677
658
684
683
658
649
668
661
632
630
638
625
583
591
595
587
547
564
562
541
519
538
534
517
498
518
517
488
486
512
513
485
500
513
515
491
509
523
523
497
517
530
516
502
531
534
520
513
536
540
524
519
545
547
520
525
549
546
521
540
547
542
514
535
540
532
502
527
526
503
490
514
513
490
484
501
499
466
473
490
488
455
477
481
473
449
473
477
470
447
470
474
452
446
475
478
455
460
477
478
455
463
481
479
450
464
482
474
453
480
484
473
458
482
487
476
461
488
489
464
465
493
497
476
495
514
522
504
529
555
564
549
590
602
603
594
632
645
638
637
665
672
648
654
680
682
651
663
669
662
632
642
643
635
597
611
612
585
568
587
585
559
549
564
560
538
529
544
542
511
516
534
528
502
522
529
523
498
523
531
527
505
535
539
519
513
542
544
524
528
546
547
517
531
547
548
518
543
547
538
514
537
539
527
505
527
529
500
496
518
517
490
494
508
505
480
488
499
496
463
477
488
471
452
478
480
466
453
476
479
465
453
479
480
452
456
482
481
455
471
483
480
452
470
482
480
454
482
486
472
459
488
491
474
469
491
492
465
472
494
495
468
491
502
503
485
517
535
539
526
558
581
578
577
622
634
627
640
664
674
659
669
690
693
664
674
688
679
652
670
670
656
628
645
640
625
595
613
608
575
563
580
568
539
536
546
540
505
518
528
526
491
516
518
507
488
515
524
512
501
527
534
512
514
543
546
521
538
550
553
527
543
555
553
525
546
558
543
527
554
556
538
527
547
546
526
513
532
530
495
498
516
508
481
497
503
496
465
486
490
484
453
480
479
458
446
476
478
459
457
478
481
454
464
486
487
459
483
489
482
457
480
484
476
452
475
480
456
449
477
479
456
462
479
480
457
463
480
480
449
462
480
472
453
483
491
488
479
509
525
522
520
562
573
566
577
621
638
626
655
677
692
673
698
720
723
698
728
731
714
697
719
717
696
676
689
680
644
638
649
643
605
611
614
603
571
581
583
575
541
558
559
532
515
537
535
511
502
520
519
500
498
523
526
500
511
537
538
517
545
555
553
533
562
570
566
543
573
574
552
542
569
568
544
544
559
556
519
529
542
539
504
525
527
513
488
508
506
493
469
489
489
459
452
476
475
448
455
469
471
446
458
474
472
442
458
472
459
440
469
471
458
444
466
470
457
446
471
473
445
448
472
473
448
465
477
476
447
466
477
475
447
475
477
460
445
475
479
461
455
475
477
447
454
478
481
457
486
499
505
488
523
547
553
543
578
599
596
597
639
649
641
654
678
688
673
681
703
704
673
683
697
685
658
674
673
658
627
644
637
621
590
604
598
565
555
571
561
531
529
539
531
493
504
513
509
476
500
502
490
470
497
501
491
479
505
513
491
494
522
526
503
520
535
539
515
533
547
547
520
539
548
533
516
543
544
526
515
536
535
516
505
525
523
490
494
515
508
480
497
505
499
470
491
497
490
460
486
486
464
452
480
481
461
458
477
479
448
456
475
474
444
468
473
468
444
467
474
466
442
465
470
445
439
466
466
442
445
462
463
440
446
463
464
434
448
467
460
440
470
476
471
462
489
499
495
491
530
540
530
541
583
601
591
623
647
664
649
675
699
704
681
713
718
705
687
711
708
690
672
686
680
642
637
647
641
604
608
612
599
567
575
573
562
521
534
533
505
486
508
507
483
475
493
495
474
472
497
499
474
486
513
514
492
522
532
531
510
536
545
542
519
549
553
530
523
550
549
524
526
542
541
506
517
534
532
500
524
527
515
490
512
514
501
480
501
502
473
469
493
493
464
472
484
481
455
464
477
474
442
459
469
455
436
463
468
454
442
465
468
453
443
469
472
444
446
471
469
444
460
471
468
440
460
470
470
442
471
472
453
438
465
467
447
441
462
465
435
441
461
462
430
451
459
458
435
464
480
481
466
498
519
514
514
558
571
566
587
615
634
623
638
669
676
654
671
692
687
664
687
691
679
654
673
669
654
623
639
634
600
588
603
592
562
561
569
560
521
531
539
534
499
522
521
505
485
509
512
499
486
508
515
490
492
521
525
501
520
534
537
515
533
546
544
516
535
547
532
518
544
547
528
517
538
538
517
507
526
524
493
495
514
508
479
495
500
493
461
483
488
483
453
479
480
458
446
474
473
449
447
464
464
431
441
458
457
425
447
452
446
422
447
454
447
425
449
455
433
427
455
456
432
438
454
454
431
436
453
451
419
433
446
434
412
438
442
429
413
437
441
429
415
442
444
420
421
447
448
423
438
450
451
421
442
460
462
439
475
484
481
473
516
533
529
539
571
591
581
593
630
641
623
648
661
664
642
660
669
664
633
649
648
621
601
616
610
580
565
577
567
540
529
541
536
498
503
514
501
471
486
488
474
445
465
468
460
435
464
466
445
440
473
477
457
467
488
492
465
482
503
506
478
508
513
506
487
516
522
513
496
521
524
498
495
520
517
489
498
509
505
478
486
495
492
457
473
481
464
444
470
471
453
439
460
460
443
431
453
451
422
425
448
446
421
438
448
447
417
438
448
445
416
444
447
428
415
443
445
427
423
443
446
415
422
442
442
411
433
440
433
407
428
433
427
402
423
429
407
398
425
428
407
412
432
437
418
431
457
465
447
468
499
504
491
532
546
550
547
578
595
593
585
620
625
607
606
634
635
610
618
629
623
587
599
608
602
565
585
581
560
536
554
550
530
511
528
525
491
488
505
504
469
481
489
485
458
472
480
477
452
472
483
467
455
485
489
473
470
493
499
483
482
508
511
486
495
519
518
494
519
527
523
497
520
525
518
490
515
514
490
479
503
501
477
478
493
493
461
471
486
485
451
474
477
466
441
464
466
455
434
456
459
434
429
454
454
429
438
453
455
432
441
457
457
427
445
461
450
431
459
463
449
435
458
458
443
428
452
452
424
424
449
447
423
437
448
447
419
438
448
446
419
447
450
436
426
459
469
456
458
486
498
484
500
536
547
534
570
587
597
582
614
630
632
614
639
650
634
624
650
651
628
622
638
632
607
600
609
604
565
570
579
566
536
552
552
539
511
531
531
520
495
520
521
494
487
513
511
486
489
502
499
469
481
496
494
463
491
495
483
464
492
496
484
471
495
501
477
479
507
509
483
497
509
508
481
495
504
501
469
488
497
480
463
489
490
471
459
481
481
462
453
474
473
443
447
468
465
438
455
464
458
429
449
456
450
422
449
450
428
415
442
441
421
418
438
439
409
418
439
441
411
436
442
436
413
438
444
436
414
436
442
419
412
440
441
419
426
445
447
424
432
451
451
422
437
455
446
428
458
464
458
447
475
488
482
479
517
526
514
523
560
576
560
584
602
612
590
611
626
628
599
625
628
611
592
613
608
588
569
584
579
542
539
553
549
513
521
524
513
482
493
494
487
454
472
475
453
439
466
468
449
446
467
470
452
453
475
476
447
458
481
479
456
481
488
485
463
487
495
490
469
498
499
478
471
499
499
476
481
498
497
463
476
490
488
454
478
481
468
444
468
470
459
439
461
464
438
435
461
462
433
443
456
455
429
441
454
453
423
440
453
439
423
450
453
438
426
448
451
436
426
451
452
424
428
452
452
426
444
453
451
424
445
455
451
424
453
455
438
426
455
458
441
443
466
472
450
463
493
501
486
522
536
547
534
572
591
595
583
613
627
614
607
638
641
619
619
632
627
601
600
609
603
563
569
576
558
530
548
548
530
506
524
520
505
480
500
496
467
461
482
478
452
459
471
471
441
459
475
476
449
481
487
481
466
500
508
496
488
511
518
493
497
523
526
501
517
528
526
500
514
523
518
488
506
512
494
479
504
505
484
476
495
492
472
466
485
483
452
458
479
474
449
470
476
470
444
467
473
469
445
472
472
452
442
470
472
448
452
468
469
437
449
466
466
435
459
463
452
430
457
459
448
428
452
456
431
428
456
456
432
442
459
461
438
451
467
468
442
461
479
472
457
495
505
502
500
531
547
544
548
587
597
584
594
628
636
617
639
652
654
629
647
658
655
625
648
647
623
606
626
621
598
585
599
591
554
555
568
563
526
540
541
530
501
516
518
512
482
503
508
485
475
503
504
485
489
509
512
492
500
521
524
494
507
526
521
499
527
534
528
508
532
539
527
509
534
535
510
505
528
527
502
510
524
524
493
509
522
520
488
512
513
498
478
503
503
488
472
496
496
469
470
493
493
465
480
491
490
465
481
491
489
460
479
489
472
458
486
488
468
462
482
485
465
460
481
480
446
451
472
466
440
459
466
461
433
455
464
459
436
466
468
449
439
470
475
455
458
477
480
452
466
489
492
469
503
513
516
503
540
558
560
556
588
607
598
601
639
645
631
647
665
668
647
656
670
670
640
654
661
644
620
639
636
616
592
606
601
581
557
570
563
527
523
536
526
495
502
509
502
468
485
494
490
461
488
490
474
462
493
497
481
477
501
508
482
490
516
518
490
513
524
524
500
523
533
529
505
527
535
513
501
527
526
501
497
513
511
488
486
503
502
470
480
497
488
463
486
489
481
458
482
484
476
454
480
480
455
451
478
477
454
463
477
476
446
461
476
474
444
469
473
460
440
467
469
457
440
461
461
431
431
455
455
428
443
454
454
429
446
460
458
432
453
465
450
436
467
471
458
455
481
489
477
480
513
521
506
520
557
568
556
591
610
623
609
639
659
661
642
676
680
664
655
682
679
655
649
661
654
615
619
628
622
583
597
596
581
552
568
562
547
517
533
529
498
488
509
506
477
481
495
495
472
482
501
503
478
497
517
509
492
522
526
515
503
527
533
521
509
538
539
513
513
540
539
513
528
540
538
508
525
534
530
498
521
520
500
483
509
510
491
481
501
501
469
473
495
493
461
479
484
479
451
469
475
470
442
465
472
452
441
473
475
456
456
476
479
458
461
480
481
451
463
481
476
453
476
481
472
450
474
479
470
449
476
477
452
449
475
473
448
457
472
470
441
455
470
471
440
469
473
462
444
474
482
474
466
496
509
493
501
540
552
544
575
599
615
601
631
654
659
641
666
684
676
664
695
700
684
676
695
693
673
661
675
669
631
631
643
631
601
611
614
602
566
584
583
572
537
559
555
529
514
539
535
509
505
521
521
491
502
521
522
495
522
532
531
510
540
548
543
526
553
559
539
536
564
567
543
551
568
566
543
552
568
567
536
551
564
550
528
550
550
532
512
532
532
518
500
522
521
491
489
511
508
479
491
503
499
467
484
493
489
457
480
481
464
449
474
475
458
451
473
479
453
460
485
485
458
478
486
485
458
479
485
481
453
475
482
460
448
474
475
453
452
471
472
450
452
471
470
439
450
468
463
438
461
466
459
438
462
466
458
435
463
464
442
439
468
474
455
470
491
502
484
508
539
550
540
585
600
607
599
642
658
655
651
678
688
665
667
691
692
663
671
680
674
644
650
653
645
609
621
622
597
575
594
590
566
549
564
556
533
518
533
529
495
496
513
503
473
491
497
492
465
489
497
495
471
502
505
488
479
511
515
495
496
515
517
488
499
520
520
491
515
522
516
493
519
525
516
494
517
518
492
486
510
508
479
483
498
496
470
477
490
486
454
469
484
471
452
480
485
477
462
485
490
478
465
491
491
462
462
485
483
455
468
480
477
447
466
478
476
446
473
476
458
441
467
469
451
442
463
464
433
435
457
457
427
446
454
449
423
441
449
446
418
441
449
428
417
447
448
428
431
453
458
441
450
478
486
469
491
527
539
526
568
583
593
588
621
639
639
628
662
667
650
648
677
678
655
660
672
667
631
640
647
639
598
612
608
586
558
574
564
544
518
534
528
494
489
507
505
471
481
492
488
461
477
490
488
461
483
496
483
471
502
508
496
494
518
525
511
508
535
537
512
520
546
545
521
542
549
546
517
539
545
539
509
534
531
507
492
515
511
486
477
492
489
455
464
480
478
446
468
472
464
439
464
469
460
438
461
465
442
437
466
467
442
450
467
467
444
453
466
466
435
453
469
458
439
467
470
459
445
470
474
461
449
474
476
450
452
477
475
449
462
472
470
442
462
473
471
443
471
472
457
443
471
475
459
455
477
482
460
469
504
514
501
535
555
568
556
593
619
625
616
647
669
660
655
691
695
680
683
702
702
680
676
689
684
646
652
659
642
612
624
621
602
569
585
578
563
533
550
544
512
502
523
518
491
494
506
504
470
484
497
496
467
497
503
495
479
513
521
511
499
525
533
509
511
541
543
519
536
550
551
525
542
553
551
523
541
549
531
514
539
538
517
502
520
515
494
481
501
499
466
468
487
479
451
467
473
469
441
464
470
466
438
467
468
448
438
468
470
449
451
471
474
444
455
473
473
443
468
473
465
441
466
473
464
443
467
472
448
444
473
474
451
459
475
475
452
460
476
475
442
457
471
459
438
463
466
452
437
460
465
453
442
473
479
462
470
507
522
507
537
560
576
565
594
621
630
616
656
666
661
653
689
697
683
678
699
700
668
669
685
680
644
654
656
642
609
615
610
599
559
575
570
539
522
540
537
508
501
515
512
488
485
502
501
468
477
495
489
464
490
498
494
474
500
510
507
489
521
525
505
502
532
535
512
520
536
536
505
519
534
532
498
521
523
509
486
510
510
496
477
499
499
470
467
491
489
460
470
481
478
452
465
476
472
439
455
462
442
426
452
452
436
428
450
452
435
429
455
458
430
437
460
459
434
455
463
459
431
453
461
455
428
456
458
439
428
458
461
441
441
460
462
433
443
460
461
432
457
464
462
442
473
487
484
474
506
524
519
525
569
582
577
599
624
638
622
640
662
666
642
658
674
665
646
670
671
655
634
652
648
630
609
623
619
582
577
592
583
549
551
555
543
502
516
516
508
469
490
488
467
450
474
476
459
453
476
481
456
464
492
495
471
496
508
512
491
517
530
527
503
528
539
520
510
539
541
520
516
533
531
509
505
520
518
483
491
504
495
469
488
491
481
454
476
476
466
441
466
465
440
432
458
456
431
435
451
451
421
434
451
450
421
448
453
443
424
452
458
447
434
458
463
437
436
461
461
433
444
454
454
428
441
452
451
421
440
452
436
421
449
451
437
429
451
456
443
438
467
474
455
467
503
516
501
539
560
573
565
600
624
632
619
661
670
660
654
688
694
676
675
692
690
654
659
670
665
625
638
637
621
588
602
596
581
546
561
555
521
508
528
523
494
494
509
508
483
491
508
509
482
499
523
518
503
534
541
535
523
547
553
543
530
558
561
537
537
563
563
537
549
560
558
525
541
551
548
514
538
538
518
499
522
519
499
486
504
501
469
472
492
490
459
475
483
480
454
473
483
480
453
473
482
461
449
477
478
459
456
477
478
458
458
479
480
450
461
482
478
456
478
484
478
453
476
480
470
448
473
472
446
439
464
463
439
444
460
461
431
444
460
460
428
457
461
451
430
459
466
459
449
476
488
473
480
520
532
526
556
582
601
589
618
648
657
640
664
685
678
664
694
696
681
668
687
686
668
651
666
661
625
622
634
622
589
596
598
584
546
559
557
547
508
525
519
490
474
496
492
468
461
480
479
448
457
478
479
448
474
481
480
457
485
495
491
472
498
509
491
488
521
525
506
515
533
538
516
522
541
541
509
522
536
525
500
524
526
514
492
512
513
499
476
497
495
466
460
481
476
449
454
464
460
426
440
451
449
417
443
446
430
412
438
441
426
414
437
441
414
416
442
443
415
431
443
442
418
436
447
445
419
439
450
434
423
453
456
440
435
455
458
439
435
456
457
426
433
455
451
427
453
463
464
445
474
491
494
481
523
534
529
531
574
591
582
601
625
640
622
641
665
670
645
671
676
666
641
660
657
642
613
629
621
583
572
586
578
543
540
546
534
502
501
506
500
462
475
483
467
445
468
468
455
440
464
469
456
448
477
482
459
464
494
497
477
496
510
513
489
511
525
524
499
530
534
520
508
539
541
522
516
536
536
507
513
533
532
499
516
520
512
484
500
503
494
463
483
485
459
447
471
470
446
447
464
465
442
444
462
462
430
440
460
451
429
456
461
454
434
459
465
456
438
464
467
443
439
466
466
442
449
464
463
431
445
459
458
428
456
459
447
428
457
463
452
441
466
475
454
460
493
499
484
512
534
546
532
564
591
598
585
612
636
633
627
662
669
659
654
675
677
659
649
666
661
626
624
636
622
591
602
603
588
550
567
567
557
521
540
536
508
493
516
512
488
485
501
500
469
480
501
502
475
502
510
506
484
515
522
516
498
523
530
507
503
531
534
511
517
534
536
513
520
534
532
501
513
526
512
491
513
516
501
483
504
505
490
472
494
493
463
461
480
475
448
458
468
466
435
453
464
462
433
463
466
452
438
467
468
452
446
466
469
440
444
466
466
438
456
465
461
437
457
467
463
436
458
466
448
435
462
462
438
435
454
452
431
427
446
446
415
425
445
440
417
442
449
443
423
447
455
449
430
464
470
454
454
493
505
491
513
540
558
546
571
604
614
600
640
651
651
637
670
679
670
656
678
680
652
647
665
660
625
626
631
617
584
584
584
574
531
541
541
517
494
512
510
489
475
493
490
472
459
478
477
446
450
473
472
447
467
478
477
452
476
489
487
461
493
498
485
477
511
516
498
497
517
519
489
496
516
516
484
505
509
502
475
496
499
491
464
484
489
462
453
479
478
452
454
469
467
440
442
458
457
422
432
446
434
411
434
436
425
406
430
433
422
405
431
432
407
404
431
433
410
424
440
442
414
432
446
446
417
445
448
434
417
445
449
436
426
449
452
424
427
450
449
420
436
445
444
417
434
443
441
413
432
441
423
409
438
442
424
420
442
447
430
430
458
463
441
455
487
496
482
521
540
553
545
578
602
608
596
636
643
630
626
657
658
638
638
652
648
612
619
627
623
581
595
592
573
543
560
556
542
514
532
530
500
493
513
511
481
484
495
492
466
473
486
486
456
474
491
481
464
494
499
491
482
506
512
501
492
519
521
495
496
522
521
496
513
524
524
497
515
527
523
492
516
517
496
480
503
502
482
471
490
489
458
462
482
480
448
468
475
470
446
467
476
472
447
470
478
458
447
476
476
453
454
472
475
454
455
472
471
439
450
467
459
436
461
465
458
438
462
466
456
433
459
459
433
428
453
454
431
440
456
455
426
440
454
454
424
450
452
440
422
448
449
435
420
442
445
419
419
446
449
428
452
470
480
466
496
524
534
523
553
582
585
580
623
634
629
632
659
666
654
651
674
675
646
650
668
662
633
643
644
631
593
610
609
597
559
577
574
547
530
550
545
520
510
524
519
482
488
503
500
468
492
498
493
471
497
505
500
481
506
513
492
488
518
520
496
501
517
518
495
500
518
518
488
502
518
508
488
515
518
507
489
511
511
496
478
502
501
472
470
494
492
464
474
485
484
454
472
484
482
450
477
479
463
446
470
471
454
443
465
468
439
442
465
464
436
453
463
459
434
453
463
458
429
449
456
437
424
453
454
434
430
449
450
429
425
442
440
409
417
437
431
405
427
432
426
400
422
429
422
399
428
429
408
399
429
430
409
414
433
438
411
427
452
460
440
479
493
497
487
529
550
553
553
588
609
603
609
649
658
644
661
677
682
658
667
677
673
638
650
655
632
607
624
620
596
571
585
576
554
532
545
537
498
494
508
497
465
473
478
471
440
457
465
462
433
461
465
451
441
474
482
467
466
490
496
471
481
507
512
487
513
522
521
499
522
528
522
496
517
522
498
486
512
512
487
486
502
501
476
477
494
491
459
470
486
476
453
477
480
472
452
476
480
471
452
479
480
455
452
477
476
452
460
474
475
443
458
472
470
437
461
464
449
431
457
461
447
434
457
461
434
433
458
457
428
442
452
450
425
441
452
451
423
443
454
439
427
455
457
440
434
455
457
440
434
460
461
437
446
475
481
462
494
512
523
512
544
567
574
563
604
615
608
602
635
640
620
621
638
637
603
610
623
620
583
600
601
587
558
575
572
560
533
550
548
516
504
523
520
488
486
497
493
465
469
482
480
449
466
482
473
455
485
491
482
469
494
502
493
483
512
517
496
500
532
537
516
534
549
553
527
546
558
556
525
551
551
533
515
540
536
519
506
525
524
491
493
512
510
476
490
496
486
456
469
475
467
433
452
456
434
421
449
452
433
431
453
456
436
437
459
460
433
443
464
461
437
459
466
458
433
455
461
452
428
454
454
429
422
449
451
429
435
453
454
424
437
456
455
427
453
458
446
425
451
457
446
432
456
465
446
450
485
494
480
504
527
541
527
556
583
592
575
601
625
620
608
643
649
638
628
651
652
636
622
641
637
602
598
614
603
571
578
582
569
532
546
546
538
504
525
524
501
485
509
507
486
479
497
497
466
473
494
496
469
493
502
501
479
506
516
514
493
519
528
511
505
538
540
523
527
544
546
523
527
541
540
507
516
529
518
492
512
512
499
477
499
501
490
469
494
494
467
462
486
483
458
465
478
476
445
460
473
470
438
463
465
452
435
464
468
457
445
470
473
446
448
475
477
449
464
475
473
445
460
469
464
437
456
467
451
438
466
469
453
446
468
471
453
447
470
470
442
447
471
469
445
468
477
476
454
479
491
493
479
520
530
522
520
562
577
565
580
607
620
602
620
648
654
632
661
669
666
644
669
670
660
633
651
647
615
604
621
615
578
574
583
572
542
539
546
541
504
516
526
511
488
510
513
497
480
501
503
490
476
501
504
479
481
508
510
485
500
514
517
491
511
525
525
498
528
531
516
502
530
531
512
501
521
520
489
492
512
513
482
498
506
502
474
490
497
491
462
482
488
466
452
479
479
458
456
475
476
456
456
477
478
450
460
482
477
452
474
480
475
451
474
478
470
446
472
473
449
442
470
470
446
449
466
466
436
448
465
464
434
460
463
452
432
458
462
450
435
462
470
450
452
486
493
478
501
524
537
521
550
578
590
574
601
626
624
613
647
655
647
637
659
662
648
635
653
649
615
612
628
617
586
593
595
583
544
556
555
544
507
524
520
493
475
498
496
473
462
480
478
448
456
479
480
453
478
489
487
464
491
501
500
480
505
516
500
494
530
532
514
520
539
542
519
525
542
540
507
518
533
521
497
520
521
509
485
507
507
496
472
496
494
467
460
483
480
454
459
471
468
435
449
464
462
432
459
463
451
434
461
464
452
438
463
467
441
441
467
468
443
458
470
470
446
462
475
473
446
464
476
459
444
472
473
457
449
472
477
461
459
488
493
471
483
516
526
510
545
563
576
568
599
622
625
611
651
660
650
646
681
688
671
674
693
695
664
672
684
680
642
656
655
640
610
623
617
602
568
585
579
546
534
552
547
514
514
526
522
495
500
513
513
483
497
514
506
488
520
527
520
509
534
540
530
519
547
550
527
528
553
554
528
540
552
549
517
533
544
539
509
536
537
521
502
526
524
506
494
514
513
481
482
502
502
471
485
492
485
456
474
481
478
449
470
477
457
444
472
473
454
451
473
475
457
455
478
479
450
460
482
477
453
476
484
480
455
480
486
480
458
489
492
471
463
492
493
469
474
490
490
460
472
491
492
463
493
500
498
482
517
534
531
527
561
581
575
584
625
639
630
655
678
690
673
692
712
715
689
708
721
707
687
708
709
688
667
682
675
654
632
645
638
600
595
608
596
565
572
576
567
531
546
552
545
513
537
538
519
505
534
536
519
516
539
543
517
526
551
554
528
552
562
561
539
565
573
570
544
567
572
549
540
564
563
538
535
552
549
523
522
536
533
496
505
517
502
476
495
497
483
459
482
484
474
454
480
481
455
452
479
480
456
465
481
481
450
467
484
483
452
478
481
469
450
475
479
466
453
476
481
455
456
483
483
458
474
486
484
458
473
483
480
451
470
481
465
451
479
481
465
457
479
483
466
462
487
490
466
474
504
508
490
521
537
548
535
567
590
597
587
632
644
639
636
672
680
664
668
685
688
656
665
680
679
643
659
660
645
615
629
624
609
578
595
589
555
543
560
553
519
516
527
520
493
494
506
503
471
483
499
488
467
495
500
491
478
504
513
504
495
526
531
509
512
543
547
523
539
552
553
524
543
554
551
521
547
549
530
513
536
533
515
503
521
521
489
489
508
508
476
492
499
494
467
484
492
488
459
481
488
469
455
484
487
467
464
484
486
465
463
484
484
453
463
482
475
449
471
478
470
444
466
471
463
440
467
469
444
438
466
467
444
450
468
471
440
452
469
469
439
467
474
466
446
479
490
484
476
507
524
514
524
565
578
570
598
623
640
624
648
672
676
654
673
689
676
659
683
684
665
647
664
658
635
613
624
618
577
573
585
575
545
552
554
541
502
517
517
509
472
495
494
472
457
484
484
463
458
478
480
453
461
486
490
465
493
504
505
484
513
525
522
501
526
536
515
506
535
536
513
516
531
530
504
505
521
518
484
494
508
493
469
490
493
480
457
479
479
465
444
467
467
439
436
463
462
437
448
462
462
432
449
463
463
433
461
464
451
432
457
459
444
432
455
459
432
435
461
462
435
452
464
462
436
454
466
464
435
455
464
446
431
456
457
436
432
452
454
435
430
454
454
425
432
457
458
437
465
479
484
469
500
520
525
513
557
568
565
568
613
631
621
639
663
677
655
672
693
695
664
685
688
678
652
671
671
656
629
646
640
606
597
615
609
577
576
584
576
548
550
558
552
514
525
534
517
496
521
526
511
498
522
526
514
503
531
532
507
510
536
536
512
529
540
537
510
527
538
535
505
534
536
520
506
534
534
516
510
530
531
497
500
519
516
482
500
507
500
473
493
498
492
464
487
494
473
464
491
493
470
470
487
488
465
465
483
482
452
464
480
472
447
469
473
464
441
462
466
459
440
466
467
442
437
463
464
441
450
465
466
435
450
464
463
432
458
464
450
429
456
459
445
430
454
459
434
435
462
463
436
450
462
460
435
450
464
462
436
456
471
463
455
492
502
499
507
540
559
553
566
605
619
607
624
659
667
647
671
683
682
654
677
683
677
644
665
662
635
618
637
628
601
588
598
588
547
550
559
555
516
530
531
521
496
517
518
507
482
504
506
480
472
497
496
472
477
493
494
470
479
499
501
475
492
512
508
491
523
528
518
505
529
536
525
511
535
535
506
505
527
524
496
508
518
514
482
499
507
504
472
497
499
480
463
488
489
471
461
481
482
451
455
474
473
442
461
469
468
442
461
469
465
440
464
474
456
446
477
479
461
461
480
482
463
462
483
483
453
462
480
474
449
472
478
472
450
473
479
472
451
478
479
454
448
474
473
449
453
467
467
437
451
469
468
441
471
477
473
457
491
503
500
500
532
549
538
547
587
598
584
608
628
638
620
640
658
660
632
650
661
644
625
644
643
618
598
613
605
584
565
581
576
539
539
555
544
513
524
529
517
480
498
501
493
461
484
483
460
446
474
476
456
456
478
483
457
468
491
493
466
493
501
499
478
506
516
511
490
513
520
498
491
518
520
496
500
516
514
488
488
501
496
461
470
482
468
445
468
470
457
438
460
463
451
434
460
461
434
434
461
461
434
446
459
459
428
446
461
460
431
459
461
447
430
459
465
451
441
463
466
436
438
462
464
435
451
461
455
428
445
451
445
414
434
442
421
407
437
440
422
420
441
445
425
425
448
450
421
430
452
449
425
453
462
462
447
476
494
495
486
527
539
531
535
576
594
581
599
622
635
612
631
652
653
624
646
648
634
610
630
628
613
588
605
601
567
559
576
571
537
540
547
540
510
515
522
518
483
498
504
489
471
496
500
485
474
496
501
487
479
505
507
481
486
513
514
489
508
519
519
491
512
523
521
496
524
527
508
496
525
525
505
500
519
517
482
488
507
505
471
491
497
490
465
486
490
482
456
479
482
458
451
478
478
453
456
472
473
449
455
472
471
442
454
471
462
441
468
472
461
446
469
477
466
451
478
478
453
450
476
476
450
460
472
471
441
458
470
469
440
468
470
454
437
463
462
445
432
452
454
426
427
450
450
422
437
447
444
418
437
447
443
416
439
453
441
433
468
476
469
480
509
527
518
531
568
581
569
588
620
627
611
643
655
656
635
658
664
657
629
650
646
617
604
621
612
581
575
585
577
538
545
553
547
510
526
523
503
477
495
492
475
452
473
472
444
440
467
467
444
456
470
473
451
469
486
490
465
487
503
492
477
508
511
498
488
512
517
501
493
518
518
491
494
516
513
486
503
511
505
472
491
495
489
459
483
482
458
442
466
462
441
434
453
450
417
424
443
442
410
433
439
434
411
436
442
435
414
439
448
428
422
452
454
434
440
458
460
436
440
459
458
428
442
458
448
429
460
467
458
442
465
467
456
438
462
461
432
429
453
453
427
439
452
452
424
447
465
469
448
486
496
495
487
529
544
536
539
568
581
565
574
606
610
588
609
620
616
592
608
615
611
580
598
599
574
556
575
571
545
533
548
542
517
508
522
520
486
491
506
494
469
487
492
482
454
474
477
470
447
477
479
459
454
484
489
466
475
493
498
471
488
505
506
475
502
506
496
474
501
505
494
478
501
502
473
471
494
493
465
473
485
481
455
467
478
475
442
459
469
450
431
454
454
436
424
445
446
431
425
450
451
424
430
455
456
431
452
462
462
435
457
467
460
432
458
461
442
432
459
461
442
443
463
464
435
442
463
464
432
453
459
455
433
456
464
455
432
453
456
435
430
461
467
451
467
491
506
495
515
547
557
541
564
591
592
580
615
624
621
610
636
643
632
617
640
641
612
608
626
619
588
592
598
586
547
557
557
547
508
526
524
502
483
504
501
482
471
491
489
458
461
483
482
455
476
485
486
463
486
498
498
475
500
513
498
489
522
526
510
511
530
534
514
515
535
534
505
515
532
523
498
520
524
516
490
512
514
504
481
505
504
479
471
497
496
471
476
489
488
456
469
483
481
449
476
479
467
446
472
477
464
449
471
473
447
446
471
472
446
460
473
472
447
462
473
471
441
460
472
456
441
469
472
455
447
468
471
453
446
468
469
439
443
464
462
437
460
471
473
454
482
500
504
488
529
539
534
535
577
591
579
591
616
627
608
623
646
649
621
646
649
640
616
635
635
623
595
613
609
575
564
580
575
544
543
553
548
521
524
532
528
493
505
516
500
479
506
509
495
480
502
504
491
478
504
506
481
483
510
513
491
509
522
523
497
516
530
531
504
533
537
520
507
535
539
520
515
536
538
507
512
532
531
500
519
524
518
490
508
511
504
474
494
499
474
463
490
490
466
468
485
485
463
463
481
480
450
461
477
467
442
467
472
461
438
462
464
452
432
459
458
436
432
462
464
440
450
466
468
438
457
473
472
442
470
472
458
440
469
472
458
447
471
479
457
462
494
501
483
511
531
544
528
558
584
590
576
604
626
620
612
646
653
640
635
656
658
639
629
644
639
602
603
612
597
564
575
575
559
524
540
538
526
492
513
509
481
468
489
486
460
461
476
476
445
458
476
478
449
479
486
480
461
491
501
494
480
507
516
494
493
522
525
502
516
531
535
512
524
538
537
506
522
535
518
499
525
526
507
491
510
507
489
474
494
491
460
461
480
476
450
465
473
468
439
458
464
460
430
456
458
438
426
454
457
439
438
459
462
435
445
467
469
442
468
477
473
451
477
486
480
461
487
496
478
471
500
502
479
485
501
505
483
491
514
517
496
515
542
542
529
567
579
581
576
607
621
617
609
644
650
629
631
659
661
637
648
659
654
618
632
638
631
595
613
611
589
567
585
579
558
540
557
553
519
519
536
532
497
510
516
510
482
499
507
505
479
502
512
495
485
517
520
504
505
526
531
512
516
539
540
513
525
542
538
517
540
544
536
514
536
542
533
510
535
536
510
503
525
522
497
500
514
512
479
491
504
501
469
492
495
484
464
491
495
483
468
489
493
468
467
492
492
465
477
488
486
460
474
486
483
455
474
485
470
455
482
484
466
459
480
481
464
458
482
482
455
460
481
478
453
474
483
481
456
481
495
495
478
515
523
514
510
549
563
551
566
590
605
589
608
636
643
621
651
659
656
636
661
666
655
633
653
653
625
616
636
633
602
601
611
603
574
576
583
575
538
549
557
539
516
536
536
518
500
521
521
506
495
520
520
493
496
520
518
493
509
521
522
496
517
529
527
500
529
532
515
501
530
532
514
508
530
532
501
508
526
525
493
512
517
509
482
500
504
497
470
491
494
469
459
486
485
462
464
480
480
457
461
479
478
448
460
478
469
448
474
478
470
452
477
481
472
456
484
486
461
460
488
487
462
474
486
487
455
471
482
480
450
476
478
462
446
472
473
458
446
467
470
443
445
469
469
440
457
468
466
440
459
469
465
438
458
469
453
443
478
485
477
484
513
530
520
533
569
581
569
589
625
635
619
652
664
665
647
672
681
674
650
672
671
641
630
649
642
612
607
616
608
568
576
582
576
538
555
552
532
506
526
522
506
486
507
507
478
477
501
502
477
489
502
503
479
494
508
507
480
500
513
502
488
518
522
508
501
524
527
511
505
528
530
500
505
526
519
493
509
516
508
477
499
507
502
473
499
500
477
464
491
491
468
466
485
484
453
462
479
479
448
471
476
467
444
466
470
461
438
461
464
439
435
462
465
442
450
465
466
443
451
469
468
438
452
469
456
437
464
468
453
440
463
465
452
439
464
463
437
437
461
457
431
445
457
455
430
450
466
466
444
478
487
481
475
517
533
526
537
568
585
575
591
626
636
618
648
661
664
644
668
677
673
649
671
676
652
640
662
659
633
627
637
630
602
597
605
599
559
565
573
555
526
542
539
521
495
513
512
500
480
505
504
480
477
505
506
483
496
511
513
487
505
522
523
496
526
532
522
506
536
542
528
518
541
545
517
521
544
544
515
529
536
533
506
522
528
521
490
509
515
491
476
500
500
478
472
492
489
467
461
481
479
447
454
471
464
437
458
464
456
432
457
464
457
435
465
467
445
439
466
466
442
446
463
464
436
449
467
467
438
465
469
459
440
466
470
459
444
466
470
447
446
472
472
445
459
472
470
445
458
469
466
437
456
468
455
442
474
480
474
476
507
523
516
524
563
575
566
583
622
637
624
657
673
681
664
689
702
701
675
703
703
682
670
693
688
664
654
665
656
616
619
627
620
579
592
591
573
544
559
553
539
509
526
522
490
479
503
502
475
482
497
498
474
483
502
504
478
496
515
510
495
525
533
524
512
536
541
528
516
542
543
514
515
537
533
505
519
528
523
491
508
515
512
481
507
508
489
474
499
499
479
471
491
490
458
463
482
480
448
465
469
466
440
462
467
462
436
460
468
446
438
466
469
447
448
466
466
444
446
463
463
432
444
461
452
428
452
456
446
426
450
454
442
424
449
450
424
421
446
445
419
429
441
441
410
426
440
439
409
437
441
427
409
436
441
429
421
446
454
433
441
473
481
464
493
512
525
510
545
572
579
568
597
617
611
605
640
645
630
630
650
652
632
626
642
638
602
607
619
605
575
589
587
571
540
556
553
540
508
525
519
487
475
495
491
463
465
481
478
448
461
478
476
448
477
483
476
458
486
495
486
475
502
510
488
489
519
522
497
512
526
529
505
521
535
534
507
525
537
522
506
531
533
513
498
516
512
491
478
496
494
464
466
488
483
457
474
482
478
452
475
483
478
452
480
482
461
450
478
479
458
459
477
480
451
462
481
482
452
475
480
471
448
470
471
462
440
463
468
442
439
466
467
445
452
468
468
446
455
472
472
441
456
472
459
439
466
471
462
454
482
494
486
486
525
535
526
538
578
593
578
608
625
637
621
645
663
665
642
671
674
656
641
666
662
642
631
647
641
602
602
613
607
568
578
579
564
534
546
544
534
501
520
522
495
482
506
507
483
484
501
504
482
486
506
506
477
490
509
502
482
511
517
512
497
522
529
522
506
535
538
511
509
536
535
509
517
529
526
494
509
520
517
486
511
513
498
479
502
502
486
473
494
494
465
465
485
484
454
469
478
474
447
464
471
466
437
457
465
445
432
460
461
443
441
462
465
447
447
467
469
438
447
467
462
438
460
466
461
437
462
469
462
440
467
469
446
438
467
469
446
450
466
468
439
453
474
477
451
483
492
490
478
517
536
534
532
563
586
579
590
630
642
631
655
675
684
664
684
700
698
668
685
693
675
657
678
676
655
637
653
647
623
606
619
613
577
575
587
573
542
552
554
543
510
527
530
523
493
519
520
498
487
514
516
496
496
515
519
492
503
526
528
500
526
533
529
508
535
542
536
517
542
548
525
520
546
545
519
524
539
536
510
513
524
520
484
498
508
493
470
494
497
483
467
490
493
479
465
490
490
460
459
482
478
452
467
478
476
448
467
480
477
449
478
482
468
455
485
487
469
464
484
484
452
456
476
476
445
465
472
467
441
463
472
466
440
464
469
447
438
465
465
440
441
458
460
439
446
469
475
453
473
505
513
502
545
560
567
568
603
624
623
617
655
663
648
649
679
682
660
670
683
682
647
659
667
661
622
640
637
614
589
605
598
577
554
569
561
525
521
538
534
499
510
517
511
483
497
506
501
472
492
502
486
473
505
510
497
497
521
529
513
514
540
541
515
525
548
545
522
545
552
547
521
543
548
540
513
537
536
510
500
524
522
495
497
510
506
473
482
496
495
461
484
486
473
451
475
476
463
445
469
475
450
450
477
480
454
467
481
482
456
469
481
480
447
463
474
457
440
467
471
455
445
466
469
452
443
467
469
442
446
470
467
442
460
469
467
440
462
475
474
452
489
498
491
490
533
552
543
557
587
605
591
611
644
654
637
670
681
683
662
689
697
689
666
687
687
656
645
663
657
624
618
627
616
585
582
587
580
541
550
557
540
516
537
535
518
498
519
518
504
487
509
510
483
483
509
512
488
505
520
522
499
522
539
540
517
548
553
543
531
563
569
553
547
568
571
541
544
564
563
528
541
546
536
506
519
522
516
485
506
512
489
475
503
503
480
478
496
496
473
473
489
488
456
466
480
471
446
469
474
467
447
470
478
470
449
477
480
457
454
481
481
456
464
476
473
441
456
471
470
441
470
476
465
448
478
482
470
459
482
486
459
462
492
496
476
501
518
530
514
545
574
585
576
607
635
637
634
675
686
680
684
709
718
705
703
725
725
694
698
714
704
674
687
688
674
639
654
649
636
599
616
611
581
566
584
577
551
545
555
549
511
517
530
527
493
517
522
515
494
521
528
521
506
531
540
521
520
551
556
534
547
564
568
546
559
576
576
549
566
579
566
547
573
574
558
542
561
560
544
527
544
539
505
503
521
512
483
493
499
491
457
475
479
475
443
471
472
452
439
465
466
447
444
465
468
440
449
471
473
447
471
478
473
450
472
479
472
448
470
478
457
450
480
483
463
468
485
488
464
468
485
485
455
467
484
475
453
481
486
479
466
494
508
504
501
541
553
544
554
596
615
603
630
652
668
651
673
694
697
670
700
704
689
671
692
687
669
650
665
659
622
618
630
624
584
592
594
579
545
550
548
537
498
512
511
483
464
487
485
463
458
477
479
458
457
482
486
458
469
492
490
468
495
504
503
485
511
520
515
495
525
530
508
502
530
531
506
508
524
521
489
500
514
511
477
498
500
486
464
487
487
473
452
473
473
442
437
458
456
427
437
448
446
420
432
444
443
415
435
450
440
423
453
457
442
433
457
462
447
442
469
472
446
451
478
478
454
475
485
482
456
478
489
484
458
485
486
467
455
485
488
470
476
500
512
494
512
544
555
539
579
594
604
592
630
648
648
637
665
678
660
657
686
688
663
666
676
669
642
639
646
640
598
606
611
590
562
578
575
552
525
541
535
517
494
510
506
473
468
488
483
454
466
477
476
447
467
481
481
456
488
494
481
470
501
508
492
487
510
515
490
496
521
522
496
516
525
523
497
516
524
518
488
509
513
487
472
497
495
470
465
480
479
455
452
471
472
440
450
469
461
436
460
464
456
432
455
461
452
432
459
461
438
434
464
465
442
453
469
471
443
459
475
477
448
475
479
467
449
476
479
465
452
474
477
449
450
475
475
449
467
482
487
465
489
510
515
497
523
548
545
542
585
597
595
603
633
647
638
640
670
676
652
659
683
681
654
670
674
666
633
650
650
639
603
622
620
591
575
594
586
559
552
563
558
521
528
540
538
502
522
526
515
490
514
517
508
486
509
515
492
487
516
518
497
507
523
526
503
514
532
533
504
521
539
528
508
535
538
524
508
529
531
517
502
523
520
490
489
510
505
477
488
497
492
458
474
481
476
446
470
470
452
438
465
468
451
447
468
471
443
450
474
475
447
468
475
472
447
467
475
472
446
468
474
453
443
471
472
451
450
467
469
446
449
467
468
436
448
464
456
433
456
460
450
429
452
457
448
429
455
458
435
435
466
473
453
471
493
505
488
513
542
551
537
580
594
597
587
624
637
630
623
649
657
635
637
663
665
636
647
656
649
619
625
629
621
582
595
596
568
546
563
560
532
518
533
528
505
492
507
505
471
475
493
487
462
481
489
486
463
488
497
495
474
506
509
491
486
517
522
502
507
526
529
498
511
527
527
495
518
521
510
486
508
509
498
474
494
494
465
459
480
480
451
457
469
468
441
450
461
459
427
443
455
442
423
449
452
438
426
448
454
440
429
455
457
431
432
459
460
436
454
466
466
440
460
470
469
441
469
473
454
441
468
470
451
445
464
464
433
439
459
459
428
451
457
454
429
452
460
455
429
452
463
444
439
473
480
467
481
507
521
509
529
562
574
563
586
621
629
616
655
668
668
657
682
689
679
659
679
676
645
636
651
641
610
608
614
605
564
574
577
569
529
547
543
520
498
518
513
493
474
493
490
458
458
480
480
452
468
482
484
460
482
496
497
474
497
511
498
487
517
520
503
499
520
524
505
501
522
523
490
495
513
505
478
498
503
496
466
488
492
484
456
481
482
457
447
472
470
445
446
463
464
432
444
461
460
426
449
451
439
417
440
445
435
417
441
445
419
418
444
446
420
431
446
446
421
434
448
449
420
437
451
438
421
446
449
435
424
447
448
433
422
446
448
418
422
445
445
420
436
446
445
418
438
450
448
424
458
464
454
448
489
506
497
510
542
562
551
570
608
622
606
641
656
663
644
672
684
680
655
677
681
655
643
663
659
627
620
630
620
591
584
591
586
548
554
563
547
519
538
538
521
500
520
518
505
485
508
508
481
478
502
502
477
488
504
505
478
498
515
516
490
520
524
513
496
525
528
513
500
523
526
496
496
516
514
481
496
504
501
474
490
497
491
461
480
488
467
453
478
479
459
452
472
473
452
449
470
470
439
447
466
461
435
456
461
457
431
453
464
458
435
464
466
444
439
466
467
443
446
463
465
432
444
460
459
428
452
456
443
420
444
448
435
417
439
441
415
413
439
440
415
427
442
441
417
429
443
444
415
432
445
432
416
446
450
438
434
460
471
463
467
503
515
506
522
562
579
566
601
622
634
618
646
664
666
646
675
678
658
643
666
662
638
625
637
630
591
592
604
598
559
572
575
561
530
543
539
525
491
508
506
477
465
486
483
455
455
470
468
443
447
467
469
441
457
478
473
454
485
492
486
473
499
508
497
483
511
514
489
486
512
512
485
496
506
504
471
486
496
493
461
487
487
471
452
478
480
464
452
475
476
448
451
475
475
446
463
472
467
440
457
465
460
430
450
459
440
427
457
458
438
434
454
455
434
431
453
453
423
431
451
448
424
448
455
452
428
453
461
456
435
466
467
445
439
464
464
441
443
459
458
429
441
459
462
436
468
477
479
464
503
522
521
522
557
578
570
578
617
628
616
636
655
662
641
656
670
669
635
650
656
636
613
632
628
604
584
598
592
571
552
565
560
525
524
539
526
494
502
506
495
461
479
483
478
449
476
478
460
449
482
489
472
475
499
507
482
494
518
521
495
519
528
526
504
531
539
533
511
533
540
516
509
534
535
508
509
525
523
497
497
509
505
469
478
489
476
452
473
475
462
442
464
467
454
437
461
461
434
433
460
459
435
447
462
461
432
450
464
464
435
463
467
452
436
463
465
449
437
458
459
430
433
456
456
427
444
453
452
426
445
455
452
424
446
455
437
426
456
458
440
437
459
463
446
448
475
481
459
476
507
515
500
537
553
564
557
591
614
616
609
649
657
645
645
678
684
664
669
684
684
650
659
669
664
627
645
643
623
595
610
605
587
562
578
573
540
535
551
546
513
517
526
519
491
498
508
505
474
491
507
495
481
512
517
506
499
524
530
517
512
540
543
518
524
551
551
528
549
559
558
529
549
556
552
521
546
545
523
508
532
529
506
498
515
512
476
481
497
495
461
480
484
476
449
469
472
461
433
454
458
432
424
451
453
430
436
455
460
439
448
469
472
445
460
479
469
450
476
479
468
450
474
479
466
447
471
472
444
443
467
465
439
452
463
463
432
450
463
461
431
459
461
446
431
462
468
457
454
483
496
481
493
531
543
533
567
588
605
591
625
649
654
637
665
685
674
666
696
700
683
678
695
692
667
658
668
662
621
622
630
613
581
592
591
576
543
558
553
541
509
529
525
494
483
504
500
474
476
491
489
457
471
488
488
460
490
497
491
474
506
515
509
498
524
533
511
511
539
540
516
527
539
537
512
522
530
527
493
507
515
497
476
499
498
477
460
480
476
457
445
465
464
432
434
456
450
422
439
447
444
415
435
445
443
416
447
452
436
425
454
456
436
434
453
456
427
435
456
457
428
451
458
453
429
452
460
454
431
455
461
438
432
460
461
438
442
461
464
442
449
472
477
454
474
502
504
493
534
549
555
555
587
607
608
607
644
652
638
641
673
676
652
662
673
671
636
650
653
648
610
630
626
603
582
599
594
572
553
567
558
520
517
529
524
485
496
500
492
463
478
485
480
454
477
487
474
465
496
502
487
489
512
520
503
506
531
533
510
523
546
544
521
546
554
548
524
548
554
546
521
545
544
517
507
530
527
499
498
510
505
469
479
490
488
452
474
475
461
437
460
462
450
432
455
460
433
432
459
461
437
450
463
467
443
460
476
476
450
468
483
470
453
480
484
468
458
479
480
463
454
477
476
445
449
473
472
447
467
478
480
460
488
506
509
496
541
553
553
555
602
625
620
637
666
685
669
686
714
720
695
721
728
724
698
718
718
708
678
694
690
658
644
658
652
618
610
619
608
579
574
580
573
535
542
548
530
503
523
525
510
490
511
513
501
486
514
517
493
494
522
527
503
519
532
534
506
525
540
540
513
543
546
534
521
549
555
539
530
551
551
520
522
543
541
510
524
531
524
497
513
518
512
480
501
509
489
476
503
504
483
479
498
497
474
471
489
487
453
462
480
474
449
472
478
472
449
472
479
471
449
476
477
452
446
473
473
449
456
473
473
442
456
473
472
443
469
475
467
449
480
489
482
476
507
523
511
521
564
578
574
609
636
656
645
677
708
717
700
725
746
738
725
755
758
741
730
748
745
724
707
719
713
672
668
678
663
629
636
637
622
582
596
592
579
541
561
557
529
512
534
532
510
506
522
522
491
500
519
520
492
518
527
523
502
529
538
533
516
541
549
528
523
551
555
533
542
558
559
536
542
556
553
521
532
544
531
507
528
527
511
490
509
510
495
475
497
496
465
462
483
480
451
462
472
468
436
454
466
464
435
462
466
449
434
463
465
448
442
463
466
437
440
462
462
432
452
460
458
434
455
465
461
435
459
469
450
440
472
477
462
466
489
498
484
495
524
534
519
542
577
589
578
620
637
648
641
671
690
687
675
707
711
690
684
706
703
673
671
679
668
628
636
641
633
589
604
599
576
549
566
559
540
515
533
527
493
488
504
500
466
474
483
478
451
466
477
476
449
469
486
472
459
489
494
482
479
504
513
499
495
520
522
496
504
527
524
498
517
523
520
490
510
513
508
478
504
504
482
470
496
496
472
470
488
488
454
464
481
480
447
467
471
463
438
460
463
453
431
453
457
431
424
449
450
425
431
447
447
423
432
447
447
416
433
450
441
423
453
457
446
431
456
462
450
439
467
470
448
453
488
499
482
512
533
547
535
564
592
600
589
633
644
641
635
673
684
673
673
695
698
668
673
690
687
651
659
660
645
612
620
618
605
567
583
579
549
533
551
545
515
506
518
514
488
485
500
498
464
473
489
482
460
487
494
489
472
497
506
499
482
511
514
490
486
514
517
493
501
517
519
489
506
521
521
489
515
517
502
482
507
508
494
477
499
499
467
466
487
485
454
466
474
469
442
455
464
459
429
448
456
438
424
450
452
436
431
453
456
438
435
459
458
427
434
454
448
421
442
448
445
418
442
449
444
421
451
453
431
422
449
450
427
430
445
446
416
428
449
453
428
460
472
475
462
501
523
527
529
566
591
589
598
639
651
640
661
680
685
664
676
691
688
656
668
675
657
633
650
647
623
599
612
604
583
562
577
571
537
533
550
542
511
519
525
515
479
495
499
494
460
486
488
468
456
486
491
474
471
493
497
469
479
502
503
476
499
507
503
479
502
510
504
478
501
508
485
476
501
503
479
481
495
493
467
465
479
475
439
447
461
448
425
448
451
441
420
442
447
435
417
440
441
414
410
435
436
412
423
435
434
405
421
434
434
404
432
436
424
406
435
438
423
412
433
436
407
410
432
433
403
419
429
427
402
422
434
433
409
431
442
426
415
445
449
433
430
452
458
441
444
473
479
461
478
513
524
509
547
564
575
568
600
620
622
609
644
650
632
626
653
654
629
629
641
635
597
604
610
602
562
576
573
552
525
540
535
518
493
512
508
475
468
485
482
453
460
471
469
443
455
469
469
439
458
473
460
446
476
481
468
460
483
487
473
465
491
493
466
469
493
490
464
481
490
485
457
476
483
478
446
474
473
452
438
462
462
440
434
453
452
420
429
448
448
418
441
448
439
414
435
439
430
406
428
432
407
401
430
431
407
413
432
432
410
416
433
434
405
421
436
428
408
434
439
429
413
436
441
428
413
440
441
414
414
437
437
412
427
440
441
414
434
452
455
434
469
479
475
468
510
526
518
524
553
568
551
562
593
600
580
603
615
615
591
609
615
609
576
593
595
569
553
573
570
543
533
549
542
518
511
523
519
482
487
499
486
459
477
480
470
445
466
470
461
440
469
472
453
448
478
483
462
473
491
494
468
483
500
501
473
501
506
495
476
503
508
495
478
499
501
473
472
494
494
463
474
484
480
453
466
476
473
441
457
465
446
430
455
457
439
430
450
451
432
427
449
450
421
428
451
449
424
444
452
447
420
440
447
441
414
442
444
422
413
442
444
424
425
443
446
417
431
450
451
423
447
452
446
422
447
452
442
421
444
450
427
422
449
452
427
436
453
456
435
450
472
476
458
479
505
506
496
535
549
548
547
577
590
582
580
610
615
592
595
621
618
592
604
612
605
572
584
588
581
544
565
562
537
520
539
533
510
498
513
509
475
478
496
494
459
476
479
471
444
460
467
461
435
458
464
444
436
466
470
451
456
476
481
462
467
489
490
463
476
496
490
468
492
498
489
470
492
496
488
469
495
497
471
466
491
490
464
472
485
483
451
466
479
477
446
472
473
458
440
465
466
450
435
455
457
428
427
449
448
417
431
441
437
412
428
440
437
409
431
442
425
412
439
444
425
420
442
444
425
422
445
446
416
423
445
442
418
440
446
443
419
443
451
446
423
452
454
433
426
454
457
434
438
456
460
435
452
477
483
462
499
511
514
504
542
560
558
554
583
597
580
582
615
619
596
609
622
621
595
603
611
608
571
584
589
568
543
562
560
538
516
531
527
509
490
505
501
466
464
482
478
449
463
471
468
440
460
470
467
440
469
471
454
442
471
476
458
459
479
485
458
467
490
492
464
487
495
489
465
488
494
486
462
484
488
464
455
478
477
451
451
467
467
442
444
459
458
426
440
456
447
425
452
456
445
428
450
456
443
427
451
453
427
424
448
447
421
433
446
445
414
432
444
443
416
444
448
435
420
448
452
436
426
447
452
425
430
453
455
426
444
453
451
427
444
453
450
423
444
454
435
423
450
453
433
432
453
457
439
442
467
473
451
469
499
506
490
526
539
547
539
568
586
585
572
606
612
594
590
619
621
598
602
617
615
581
590
600
595
559
575
575
557
533
552
548
531
508
525
518
484
479
498
494
463
472
481
474
447
460
472
470
442
462
475
464
451
481
486
474
471
496
504
489
486
512
515
489
495
520
518
494
512
520
515
486
508
512
505
475
499
497
475
462
488
487
463
459
477
476
442
452
469
468
435
457
461
453
430
454
459
451
430
453
459
434
430
458
458
434
441
458
459
435
444
460
459
430
445
459
448
427
453
456
442
427
449
451
435
422
448
449
422
421
446
443
418
433
445
442
414
432
443
441
412
439
442
426
414
445
451
437
436
461
471
450
462
494
501
484
517
532
541
526
559
581
586
572
601
617
604
598
629
632
613
613
628
626
603
600
611
607
569
575
582
567
539
554
553
537
511
529
527
512
484
505
503
471
464
487
483
458
464
475
472
441
458
473
474
444
472
479
467
453
484
490
479
469
494
500
476
480
508
510
486
504
517
518
493
510
522
519
492
510
519
500
486
510
509
487
479
495
493
472
464
483
481
450
455
474
467
442
463
468
463
437
461
468
461
436
462
462
438
430
458
458
437
442
460
463
434
448
467
467
438
465
470
461
440
466
469
459
438
460
462
436
432
455
454
427
434
446
445
420
431
444
444
414
432
445
429
411
440
443
430
420
444
450
438
434
465
471
454
464
499
510
495
527
545
559
549
578
600
605
588
623
631
618
609
639
641
623
619
637
636
604
608
622
618
581
594
595
582
551
565
561
548
517
533
531
501
488
510
506
478
477
491
490
465
469
486
485
455
470
487
479
459
486
492
484
468
493
499
491
478
509
512
489
488
518
519
496
510
524
526
497
516
529
529
500
526
528
511
494
518
519
501
488
509
510
477
477
499
497
465
479
485
478
449
464
469
464
434
454
462
443
430
458
461
442
439
460
461
443
443
464
466
434
445
464
459
435
459
464
457
434
457
464
456
433
461
462
438
433
462
463
441
448
466
466
436
449
466
466
438
468
476
471
456
491
505
501
497
528
543
531
540
579
588
578
602
623
633
614
633
650
650
623
641
652
634
615
635
633
609
593
608
601
578
561
574
569
531
529
542
531
503
513
518
505
471
488
493
485
456
481
482
462
452
481
486
467
470
490
496
470
483
507
510
483
512
520
516
495
521
529
522
503
528
535
511
505
532
535
510
514
528
526
501
506
516
513
480
493
507
492
472
497
498
483
466
486
485
471
452
474
473
444
443
468
466
441
456
468
467
439
460
472
471
444
471
473
457
442
468
473
455
449
471
474
447
454
476
477
448
468
477
476
453
477
486
482
457
480
490
470
461
492
496
480
486
509
517
501
515
544
553
540
563
594
601
588
624
637
640
628
655
669
664
648
676
678
654
648
670
665
637
638
646
639
599
607
613
607
566
585
582
560
535
553
548
529
509
527
523
491
489
510
509
478
492
503
502
478
495
511
511
487
509
525
512
500
532
536
522
519
542
546
530
526
549
550
522
528
548
544
518
540
545
541
515
538
544
539
514
540
540
516
506
530
527
503
501
515
514
481
492
507
505
474
497
500
492
469
493
496
487
465
489
492
466
461
486
487
459
467
481
479
454
463
475
474
443
459
472
459
441
469
474
462
452
473
476
463
452
480
482
459
465
495
501
482
507
523
531
516
543
566
574
560
601
612
611
607
649
663
652
658
682
692
668
677
699
700
668
683
686
674
644
656
653
642
609
627
624
594
582
599
593
563
561
572
565
537
536
546
540
504
514
525
511
488
512
515
504
488
513
519
511
500
530
533
512
512
542
546
524
537
553
554
526
542
556
556
525
553
556
541
522
549
551
535
521
542
540
509
509
529
529
496
509
515
509
482
498
504
497
467
487
494
474
460
488
490
470
467
486
487
468
466
488
489
459
468
488
482
457
481
487
482
459
483
489
482
459
486
486
462
453
481
483
459
461
476
474
442
453
467
465
433
459
463
455
435
462
471
462
452
480
492
476
483
521
531
520
547
570
586
571
598
623
632
616
641
665
658
645
677
683
672
663
683
682
663
646
660
655
617
613
625
612
580
585
585
569
530
545
543
533
497
517
514
487
471
495
493
471
467
485
488
460
469
493
497
471
498
507
507
487
517
529
525
508
534
543
523
518
548
548
528
533
550
548
524
525
538
535
499
510
520
504
480
503
503
489
471
495
497
486
470
496
495
470
470
496
495
470
483
496
494
465
485
498
494
467
495
497
481
466
493
495
479
470
492
494
464
468
489
491
462
480
489
487
463
481
490
487
459
482
492
474
463
493
497
481
484
507
515
499
509
539
547
530
548
582
593
582
621
637
649
643
674
692
693
681
715
721
702
699
728
727
704
705
716
711
672
680
685
678
638
651
648
626
598
614
608
590
567
583
579
544
540
557
551
518
525
532
528
501
515
526
525
497
518
535
522
509
542
548
536
534
559
567
552
550
577
580
555
561
584
581
556
576
583
578
548
568
572
565
534
558
557
532
519
544
541
518
515
530
529
495
502
519
517
484
506
509
499
475
499
504
496
474
498
502
478
472
498
500
476
482
498
497
472
479
495
494
464
479
496
485
465
492
496
484
469
493
498
486
473
500
502
476
478
506
507
484
501
514
517
496
520
541
546
531
572
586
586
584
632
653
648
659
691
711
696
709
742
748
725
749
760
760
735
755
760
753
721
739
740
711
694
712
706
674
663
673
663
634
626
633
629
590
595
605
592
565
584
586
575
552
574
579
569
550
576
577
555
552
582
584
562
573
590
593
565
581
597
598
568
595
601
590
570
597
599
585
569
591
591
561
559
578
576
543
552
559
553
523
531
538
533
500
515
524
504
487
513
513
494
487
506
507
488
481
504
506
476
481
504
502
477
498
505
502
474
497
502
499
475
505
507
487
478
506
509
486
487
504
506
475
486
502
501
469
492
495
484
459
483
486
477
457
479
484
459
454
481
482
457
466
483
488
467
486
514
524
511
538
570
580
575
622
639
650
656
689
709
706
706
740
746
725
728
754
751
726
736
742
734
695
705
704
694
654
666
660
629
606
619
610
585
568
582
575
537
537
550
548
513
527
533
526
500
520
530
526
501
526
536
519
513
544
549
533
540
561
569
550
557
580
584
557
571
590
582
559
582
584
572
548
568
567
553
530
553
551
520
513
532
527
498
501
511
507
472
486
496
493
460
485
486
472
451
477
478
463
451
473
476
448
449
474
476
447
463
475
474
448
464
477
474
447
467
478
461
449
477
480
463
456
477
478
459
454
476
476
444
451
472
467
441
463
469
463
435
458
464
461
438
468
473
457
455
494
511
499
520
550
573
565
591
630
645
637
681
700
709
697
732
748
743
732
757
764
738
732
752
748
714
713
719
708
674
670
670
662
618
626
627
603
576
590
584
559
535
551
546
523
506
526
524
494
495
516
515
490
509
520
523
501
524
539
540
518
551
555
542
532
564
570
555
553
574
579
550
557
577
577
543
561
567
559
530
548
550
540
511
530
532
506
494
516
515
488
486
500
499
473
472
486
483
447
458
475
463
439
464
469
459
441
466
471
462
446
473
475
452
450
479
480
457
468
483
484
455
473
486
485
454
482
484
471
453
478
479
463
449
470
473
445
447
473
473
444
460
470
468
443
461
472
472
448
471
487
478
471
510
521
517
528
558
579
573
588
627
643
635
655
692
704
688
721
735
740
721
745
753
746
718
739
737
706
691
706
696
665
655
662
651
608
613
618
611
571
586
587
569
542
560
560
546
522
542
543
513
508
531
530
503
512
524
525
499
512
528
529
500
519
535
524
509
539
544
530
518
541
544
529
517
540
541
511
512
534
532
506
525
533
530
499
518
526
518
485
508
505
481
464
487
484
462
453
471
470
436
443
462
461
427
448
454
448
423
444
450
444
421
443
451
429
422
450
452
430
434
453
456
434
440
456
455
424
436
452
441
420
446
448
438
418
441
447
435
419
444
446
418
417
443
445
418
431
445
445
414
430
443
441
409
435
438
422
405
433
438
424
418
444
455
435
445
482
493
481
515
538
553
540
575
601
609
595
624
643
634
624
657
660
642
635
652
649
626
615
626
621
581
584
590
575
543
552
550
533
499
515
511
498
467
487
484
455
445
468
465
440
442
457
456
425
439
459
461
435
462
468
459
440
471
478
468
456
480
487
463
462
489
490
466
478
491
492
467
479
492
491
457
474
484
467
448
472
472
452
438
457
457
439
425
446
444
412
414
433
428
399
415
424
420
390
410
418
415
387
414
416
395
383
413
418
399
397
419
424
394
404
425
426
393
415
421
412
387
409
413
404
379
401
406
384
378
406
408
386
392
411
414
390
396
414
413
383
398
416
410
394
427
439
436
431
463
480
474
473
512
521
509
516
552
563
544
562
577
582
557
576
588
585
553
575
573
552
531
549
545
523
507
524
519
482
482
497
492
456
468
471
463
432
445
449
442
410
428
436
415
404
432
435
416
417
437
444
426
428
451
455
429
441
464
458
435
459
467
460
439
463
469
462
443
471
473
447
441
466
465
442
446
459
457
426
440
453
450
418
442
443
429
407
430
430
416
400
422
425
398
398
423
424
395
407
419
417
393
409
423
422
394
412
424
408
394
422
424
406
397
419
422
404
397
421
421
393
399
421
420
394
416
424
421
396
418
427
423
396
424
427
409
400
430
436
417
424
447
455
432
449
477
485
466
502
515
519
505
541
557
554
539
566
576
555
552
580
581
557
564
577
575
549
553
562
558
521
531
539
520
497
518
518
500
481
500
499
481
465
486
484
455
455
478
478
453
467
479
478
450
469
481
480
453
484
489
473
461
490
494
478
474
496
501
472
478
502
503
474
493
499
495
469
489
497
489
462
484
489
466
455
479
479
454
451
466
464
439
437
451
449
416
426
445
434
410
433
439
430
410
432
437
427
409
435
438
414
412
439
440
416
425
440
441
412
428
442
441
411
439
441
427
408
435
437
422
409
431
436
410
410
434
435
407
423
433
432
407
424
436
434
408
429
442
429
420
455
461
453
458
485
497
485
492
524
532
512
526
554
557
536
562
574
573
551
574
582
576
551
577
577
550
540
561
558
533
530
543
538
501
510
521
517
480
499
499
487
462
486
486
473
453
474
475
448
443
469
471
445
456
470
475
453
466
483
485
458
476
491
480
463
491
495
482
471
492
495
478
465
487
487
457
459
481
478
450
465
474
469
440
460
470
466
439
465
468
448
435
462
463
444
440
461
463
433
442
465
467
439
462
469
464
440
462
466
458
433
455
460
435
428
453
453
431
434
450
450
426
430
446
446
415
430
446
437
418
446
452
444
428
451
456
444
427
453
454
429
429
459
463
441
460
477
485
464
488
509
516
500
536
547
543
533
568
579
567
565
589
595
568
573
594
594
564
576
582
575
547
559
563
555
521
539
539
512
496
517
515
489
481
497
491
468
464
479
477
444
454
470
463
439
464
471
465
446
471
479
474
455
486
491
471
467
496
498
476
482
497
497
467
481
496
495
464
488
491
479
459
487
488
475
460
482
485
456
455
479
480
452
465
478
476
450
465
476
474
446
464
475
458
444
472
473
455
446
466
469
452
445
467
467
438
443
465
462
435
456
463
459
431
453
460
453
425
452
452
431
420
449
448
426
428
446
447
418
429
446
446
415
440
447
441
420
447
454
446
428
453
464
446
446
481
487
472
488
510
520
504
527
551
557
538
559
582
578
566
599
606
596
585
608
611
597
586
607
605
575
573
591
582
553
560
567
557
521
534
539
532
500
523
523
502
487
511
512
493
486
507
509
480
487
509
510
482
502
509
506
483
506
515
511
487
511
520
500
493
522
526
504
507
524
525
501
501
516
514
480
490
506
496
473
497
499
487
467
489
491
479
460
483
484
454
451
476
475
449
460
472
472
444
460
472
472
442
469
473
460
444
472
475
461
451
473
476
450
452
476
479
451
469
480
476
451
467
476
470
442
463
470
450
436
464
466
446
441
460
462
440
438
458
458
429
439
460
457
434
457
463
459
435
459
465
458
438
466
470
451
447
481
490
473
487
511
522
502
522
548
555
538
573
583
580
565
594
601
592
578
601
604
576
572
593
589
558
563
570
563
534
541
549
545
512
527
533
511
492
515
514
494
482
501
500
481
472
493
493
465
470
493
491
465
486
496
493
466
490
501
498
472
503
507
489
480
512
514
493
495
514
516
488
499
517
515
481
501
504
492
467
489
492
481
460
481
483
459
453
477
478
452
459
475
478
453
463
480
479
450
466
481
468
449
475
478
464
450
473
475
459
445
469
469
442
442
464
463
438
454
464
461
432
450
461
459
430
457
457
440
426
454
458
440
435
457
460
431
438
462
464
436
459
467
466
442
467
478
477
457
487
501
488
485
522
530
521
534
556
564
548
558
582
585
559
574
596
590
568
593
596
584
562
581
582
569
546
568
565
534
529
548
543
515
522
532
530
497
512
522
518
485
509
511
494
474
499
500
484
473
495
497
471
474
500
502
477
496
508
509
485
505
517
514
489
512
522
504
492
520
523
504
501
520
523
502
501
520
520
487
495
514
508
482
504
508
498
472
493
497
487
464
489
490
468
463
489
490
466
469
487
487
454
465
480
477
445
469
472
460
439
465
469
458
441
464
469
444
444
468
468
441
453
464
464
439
455
468
468
440
459
471
456
441
468
469
454
444
464
466
447
438
462
463
435
441
465
465
443
466
479
483
465
494
513
518
504
545
553
547
547
588
602
590
599
622
630
605
618
639
640
610
631
636
628
606
628
630
620
593
612
610
579
569
589
586
554
553
562
556
528
530
538
533
496
508
518
502
480
503
504
490
477
500
501
486
473
498
501
477
481
508
509
485
502
516
517
493
513
528
527
502
533
538
522
511
540
540
521
513
531
530
498
502
521
520
487
503
510
504
477
496
499
493
464
485
490
467
457
483
484
461
462
477
476
453
456
470
471
439
450
468
458
437
463
467
458
440
465
470
461
445
473
475
451
450
476
476
451
461
474
472
441
457
469
467
436
462
464
449
431
455
457
442
431
453
456
429
431
456
458
431
450
462
465
441
464
481
484
467
496
515
512
510
552
564
561
570
598
611
599
607
636
640
615
626
647
640
616
636
639
627
599
616
615
603
573
591
586
555
542
561
554
525
524
534
528
493
501
510
504
468
490
492
478
457
483
488
476
462
486
490
467
468
497
502
480
496
510
513
490
508
524
524
497
516
529
516
501
531
533
518
509
530
531
513
503
523
523
491
494
514
509
482
501
507
504
476
497
502
498
469
496
497
474
463
489
489
468
467
485
485
455
464
482
481
450
474
481
475
453
480
484
476
456
479
483
458
454
481
483
458
467
483
482
459
466
481
479
447
462
477
465
445
472
475
463
449
473
475
460
446
470
471
444
447
474
476
452
472
486
494
476
503
526
533
521
563
576
579
577
619
639
631
638
665
677
655
663
686
688
659
678
683
676
649
663
663
651
617
633
629
598
581
597
591
560
555
567
561
534
531
541
537
499
508
521
509
485
509
514
503
481
505
510
501
485
513
516
495
496
527
532
510
524
540
542
513
533
548
548
521
553
556
543
524
548
549
533
519
539
537
505
506
526
525
493
506
513
507
478
493
499
495
466
486
493
473
460
488
489
469
465
485
486
465
463
484
484
454
463
484
480
456
479
485
480
456
480
484
478
456
483
484
460
454
479
479
456
460
477
476
445
457
474
472
441
467
469
459
440
467
470
458
443
466
471
447
446
473
475
452
469
485
491
470
494
517
523
507
535
561
563
561
605
620
622
630
661
678
670
671
703
708
685
691
714
710
684
699
703
693
658
673
671
660
624
644
639
609
589
606
599
571
560
572
564
527
532
542
539
503
522
525
516
492
516
524
516
497
521
528
507
506
537
540
521
531
549
551
529
541
558
560
530
546
561
550
531
559
564
550
534
554
555
540
524
546
545
514
513
533
529
501
511
520
514
482
499
507
500
468
492
492
471
456
482
484
465
459
479
480
448
454
477
478
448
470
478
475
451
474
482
477
454
478
486
464
454
480
481
457
458
476
476
453
456
473
473
441
452
470
462
441
467
471
462
443
464
468
457
439
464
466
439
436
462
462
437
451
468
474
453
475
500
508
496
542
558
564
558
604
624
622
625
657
674
657
665
695
699
674
690
698
692
662
670
670
660
622
634
631
600
579
595
589
559
545
557
549
522
512
524
518
480
484
496
486
458
478
484
479
457
481
488
484
465
497
502
484
481
512
518
497
505
523
525
497
511
529
529
499
526
529
519
501
526
528
514
496
517
516
486
482
504
503
472
480
490
488
460
471
482
480
449
468
478
460
445
471
472
454
445
466
469
452
444
467
469
439
445
469
465
438
458
465
463
436
461
470
466
438
468
468
449
439
470
472
452
455
474
476
446
460
479
481
454
481
487
478
455
482
486
479
462
489
500
485
487
526
536
527
551
577
592
581
609
639
650
635
662
688
686
672
706
711
700
685
704
701
685
664
680
674
635
631
643
630
596
602
603
591
553
568
570
563
527
549
547
521
506
529
525
503
497
518
517
486
495
517
520
490
517
525
522
499
526
536
533
511
539
545
524
518
549
550
527
534
552
552
528
533
546
545
512
524
537
523
497
521
520
504
483
504
503
490
472
495
493
462
458
483
480
453
466
478
479
450
470
484
483
454
485
488
476
462
496
501
489
482
506
508
477
481
503
503
472
490
498
494
466
485
491
486
455
477
481
459
446
473
471
448
445
465
462
439
437
456
455
424
436
459
457
437
473
484
489
480
515
536
539
535
578
589
584
589
631
646
629
646
666
670
644
661
675
673
637
659
657
638
610
627
617
598
572
587
577
538
529
542
535
496
502
508
498
465
475
479
474
441
460
468
453
441
473
477
465
464
489
497
483
484
513
515
490
501
527
529
507
532
540
540
515
541
550
547
521
551
551
526
514
538
532
504
502
515
506
464
473
482
476
437
457
456
439
411
432
430
416
390
411
410
382
379
405
404
379
391
407
408
386
400
417
419
391
411
428
418
403
435
439
430
423
449
454
442
434
461
463
437
441
469
469
444
468
479
478
450
472
480
476
449
480
482
468
460
496
505
492
501
530
545
528
547
581
594
580
617
633
642
625
659
672
672
654
681
689
668
659
684
681
652
649
659
649
618
613
617
609
568
576
582
563
536
555
551
533
508
528
524
507
486
508
506
478
477
501
501
476
492
507
507
479
502
517
519
493
529
533
522
510
543
547
533
528
551
554
526
531
553
551
518
535
541
534
505
523
524
518
488
509
513
490
476
503
502
478
472
487
484
461
459
477
476
444
456
473
467
442
469
474
468
446
474
476
468
448
476
477
450
445
472
470
445
452
468
465
431
447
461
460
429
455
458
445
423
451
451
437
421
443
442
414
416
441
442
416
435
449
452
429
452
473
478
458
485
508
506
500
541
550
546
551
578
589
577
576
604
609
588
600
631
638
616
641
652
652
626
649
655
649
622
649
650
627
617
642
640
616
612
626
622
584
591
601
597
560
576
577
564
537
557
555
544
521
544
541
528
527
532
523
490
496
505
499
481
494
501
497
473
490
498
485
463
490
493
480
470
494
496
482
472
501
504
482
487
515
516
494
514
524
522
493
513
522
519
490
514
515
496
481
505
505
485
477
494
496
468
474
493
494
465
485
492
488
463
483
490
485
460
482
489
468
460
485
487
466
469
483
485
463
466
483
483
452
463
480
471
452
477
482
474
458
481
487
477
463
488
490
469
469
499
506
488
509
532
544
530
557
583
592
579
619
630
628
619
653
665
654
649
671
675
649
651
671
670
637
644
648
639
610
620
620
610
573
587
585
557
539
555
552
529
520
535
532
509
501
516
516
486
495
514
510
489
513
521
517
499
523
532
527
510
541
545
527
523
552
556
534
543
558
559
529
542
555
554
523
545
547
535
514
536
535
522
503
523
522
494
491
513
513
483
493
502
497
472
483
490
486
453
468
476
456
440
464
465
447
439
460
463
446
442
465
468
443
450
472
471
449
469
477
474
448
470
480
477
454
482
484
466
457
483
486
466
470
486
490
463
474
492
493
463
484
489
482
460
484
491
484
471
498
509
495
498
535
543
533
554
577
589
577
598
623
629
606
626
646
638
621
648
652
639
624
644
644
627
610
628
626
593
591
606
597
569
577
583
575
540
556
559
550
515
537
535
511
494
518
516
496
490
508
509
481
489
512
514
488
513
523
521
500
525
533
528
510
534
541
521
515
541
542
520
520
536
535
512
514
527
525
492
504
516
504
482
505
505
492
472
492
495
482
464
488
488
461
459
483
481
456
467
478
475
444
461
471
472
443
469
473
459
443
470
474
459
450
471
474
447
451
474
474
447
464
471
467
442
458
465
461
431
453
461
442
430
457
459
440
440
458
459
437
437
454
455
426
436
455
450
429
456
466
466
453
482
500
501
495
537
547
537
542
581
595
580
599
619
628
607
625
646
646
618
645
649
637
618
642
642
625
607
624
622
587
582
597
592
556
563
569
560
528
535
541
536
503
519
525
503
489
514
514
495
486
507
508
490
484
506
506
477
483
505
503
479
502
511
508
483
505
510
505
479
506
506
482
471
495
495
471
471
487
487
453
463
480
479
446
469
472
460
437
461
465
455
435
457
460
433
430
455
455
430
440
453
452
426
437
451
450
420
438
451
439
420
448
451
437
427
450
454
439
430
455
456
429
433
459
457
432
451
461
458
430
450
458
454
426
453
454
433
421
449
450
430
427
448
450
420
430
451
452
424
445
452
447
424
450
461
456
438
465
478
464
464
501
510
498
515
538
551
538
558
585
591
570
590
613
609
591
618
623
612
594
615
615
599
579
599
596
563
557
574
566
535
540
547
539
504
519
527
522
489
512
511
489
470
492
491
471
462
481
483
457
463
486
488
462
484
494
492
468
490
501
497
474
497
506
486
475
501
501
478
475
492
491
469
468
485
484
451
461
478
469
446
469
474
464
443
466
467
456
435
459
460
437
434
462
464
441
451
467
468
440
455
469
469
439
464
468
456
437
463
465
450
435
455
457
428
429
453
455
429
446
459
456
431
446
457
454
425
444
452
434
420
447
448
427
422
442
445
425
420
441
443
416
423
445
444
420
446
454
455
435
463
478
478
465
505
515
508
509
550
563
549
566
589
600
578
594
615
617
590
615
619
608
584
604
603
588
562
579
575
543
537
552
550
518
521
530
524
494
500
508
504
469
484
493
473
454
478
480
463
450
472
475
461
454
481
485
461
466
494
499
476
499
510
510
487
512
524
522
496
528
529
512
500
527
529
508
504
522
520
487
495
512
512
479
499
503
494
468
491
493
485
460
480
483
459
451
478
479
455
459
476
478
456
464
482
481
451
464
478
464
443
468
471
459
442
466
468
455
440
464
464
435
434
458
457
432
447
458
456
426
445
455
453
424
451
454
439
427
458
464
448
444
467
471
445
452
477
479
454
478
490
493
473
501
518
519
505
535
553
544
542
582
591
583
596
622
633
618
626
650
654
626
640
658
650
626
648
649
637
611
629
625
608
580
601
597
565
556
575
570
542
546
557
552
518
530
540
536
502
526
527
510
489
512
513
499
487
511
517
491
493
520
522
497
515
529
531
509
529
542
542
518
541
553
537
525
556
558
542
538
559
562
541
537
559
559
528
534
552
545
518
535
539
528
498
517
519
511
483
506
504
479
470
494
492
466
469
484
483
450
462
478
476
445
468
471
463
441
468
474
463
446
469
475
451
450
477
479
454
464
476
475
451
462
474
473
441
458
469
457
441
468
472
459
450
473
480
466
462
490
493
472
479
507
508
484
503
513
511
487
511
526
526
506
545
553
547
545
588
607
600
614
644
660
644
661
690
696
673
701
709
705
682
704
707
696
668
687
685
653
641
658
653
618
612
620
608
578
573
577
570
529
537
545
526
502
523
523
507
490
511
514
502
488
515
517
493
497
527
532
511
532
548
553
530
553
570
570
546
579
583
569
555
584
586
569
561
583
584
554
558
578
577
544
561
566
558
527
543
545
538
506
527
530
508
495
521
521
498
496
513
513
491
491
507
505
472
482
498
489
465
489
492
483
459
481
484
475
456
483
484
459
455
481
482
458
470
484
483
455
471
486
487
460
488
492
481
465
493
498
486
475
499
504
478
483
509
513
491
513
530
537
519
544
567
574
559
587
609
607
604
645
656
651
657
683
693
680
679
700
701
672
675
691
682
651
663
663
650
613
629
625
614
579
597
590
559
543
561
555
528
523
534
528
489
498
512
509
475
499
502
492
471
498
504
495
481
506
515
494
495
524
529
509
525
543
548
526
540
557
560
533
553
567
555
538
565
567
552
539
559
558
540
525
545
544
511
510
529
521
493
506
512
505
472
490
495
490
461
486
486
465
452
479
480
459
455
475
476
446
455
475
477
448
473
481
480
458
483
491
487
465
490
498
476
470
499
500
476
479
496
497
473
479
497
496
468
484
501
493
474
506
514
512
504
535
551
548
546
584
596
588
598
641
659
646
674
695
708
691
714
734
736
713
743
748
735
717
740
737
718
702
716
710
673
670
681
676
637
643
646
633
602
610
609
599
564
580
580
552
535
556
553
528
522
540
539
519
519
540
541
513
525
548
546
525
554
561
559
540
566
574
568
550
580
582
561
557
584
584
561
566
580
577
541
554
564
560
525
546
547
530
506
526
524
509
491
511
511
481
479
504
503
472
485
495
492
465
480
492
489
461
479
490
474
460
487
490
474
467
489
490
471
466
487
487
456
461
481
476
450
468
475
469
441
464
470
466
439
467
470
449
440
471
475
454
456
475
477
449
463
486
490
466
504
517
523
511
555
580
585
587
624
653
651
660
705
717
708
730
751
760
741
755
771
770
738
751
756
736
710
723
719
695
668
681
672
650
624
635
626
588
583
594
581
547
552
555
547
511
526
531
525
492
518
520
500
488
518
520
503
501
523
529
505
514
541
547
523
549
560
561
539
564
574
570
546
570
577
554
546
571
572
548
550
562
561
535
533
547
543
506
515
528
515
488
510
511
496
475
496
496
482
461
485
485
457
452
477
475
449
458
469
470
438
455
467
466
437
466
468
454
437
467
472
458
446
469
472
446
449
474
475
445
462
471
467
440
459
466
463
432
452
460
441
430
458
459
439
432
452
454
433
431
454
457
434
448
478
485
469
509
526
541
538
576
604
610
611
658
672
666
670
708
721
703
714
733
735
703
715
725
719
681
697
693
671
643
654
644
624
594
608
596
556
545
558
551
513
513
519
510
480
487
494
491
458
476
489
476
462
492
499
489
487
515
526
515
517
548
555
536
546
576
579
559
582
594
593
568
592
600
596
566
591
591
568
552
573
567
543
536
549
546
509
515
527
523
486
503
505
493
465
485
488
478
452
473
474
446
439
465
465
443
449
465
467
444
452
471
471
442
456
473
461
442
470
474
465
452
476
482
472
461
488
492
467
470
493
493
469
483
492
490
460
479
492
492
467
500
509
502
494
532
549
542
552
584
605
595
613
654
667
658
692
711
720
703
731
745
744
720
743
749
726
714
737
735
706
698
708
697
667
656
660
652
610
613
618
599
570
583
582
564
534
551
547
534
510
531
529
499
492
518
518
495
505
522
525
500
519
537
540
515
548
555
547
530
561
565
554
542
565
569
542
544
568
568
538
549
557
552
523
536
544
540
506
524
530
510
493
517
516
493
484
503
503
484
477
497
496
463
468
488
482
457
478
485
482
456
479
485
481
458
486
487
467
458
487
491
470
474
493
496
466
478
497
497
467
494
498
490
468
495
499
489
470
492
496
473
471
496
498
473
486
501
505
482
498
519
525
506
531
558
561
554
597
611
617
624
657
679
675
680
716
723
705
712
739
740
716
730
737
731
697
711
710
700
659
673
668
638
618
633
625
598
584
597
588
547
549
561
558
521
537
539
531
504
523
528
521
496
519
527
505
499
527
531
510
518
537
543
523
530
550
552
525
540
559
549
529
554
558
547
526
548
548
534
515
536
534
503
499
519
514
487
495
503
498
463
479
488
484
452
477
479
463
446
472
474
456
448
468
468
438
440
461
462
433
450
458
456
432
452
459
457
429
451
457
439
428
456
459
437
436
454
458
436
435
455
456
424
434
454
449
424
448
454
448
426
449
455
447
427
456
460
440
438
472
480
464
482
505
518
503
527
558
568
553
595
607
612
603
642
659
655
650
677
686
662
663
687
685
655
662
669
660
631
634
633
624
584
592
589
558
535
550
546
519
502
518
512
488
473
488
486
450
453
470
465
440
460
468
